{
  "AcquisitionMatrixPE": 100,
  "AcquisitionNumber": 1,
  "AcquisitionTime": "11:08:29.897500",
  "BandwidthPerPixelPhaseEncode": 18.519,
  "BaseResolution": 100,
  "BodyPartExamined": "BRAIN",
  "ConsistencyInfo": "N4_VE11C_LATEST_20160120",
  "ConversionSoftware": "dcm2niix",
  "ConversionSoftwareVersion": "v1.0.20180622 GCC4.9.2",
  "DerivedVendorReportedEchoSpacing": 0.000539986,
  "DeviceSerialNumber": "166078",
  "DwellTime": 2.1e-06,
  "EchoTime": 0.034,
  "EchoTrainLength": 100,
  "EffectiveEchoSpacing": 0.000539986,
  "FlipAngle": 90,
  "ImageOrientationPatientDICOM": [1, -4.59504e-07, -1.24617e-05, 4.6189e-08, 0.999451, -0.0331466],
  "ImageType": [
    "ORIGINAL",
    "PRIMARY",
    "M",
    "ND",
    "MOSAIC"
],
  "InPlanePhaseEncodingDirectionDICOM": "COL",
  "InstitutionAddress": "Street_StreetNo_Bei_Jing_District_CN_ZIP",
  "InstitutionName": "BeiJing_Normal_University",
  "InstitutionalDepartmentName": "Department",
  "MRAcquisitionType": "2D",
  "MagneticFieldStrength": 3,
  "Manufacturer": "Siemens",
  "ManufacturersModelName": "Prisma",
  "Modality": "MR",
  "MultibandAccelerationFactor": 3,
  "PartialFourier": 1,
  "PatientPosition": "HFS",
  "PercentPhaseFOV": 100,
  "PhaseEncodingDirection": "j-",
  "PhaseEncodingSteps": 100,
  "PhaseResolution": 1,
  "PixelBandwidth": 2380,
  "ProcedureStepDescription": "BNU_P2018_64CH_Zhen.ZongLei",
  "ProtocolName": "bold_100x100_s3_2x2x2_retino_150",
  "PulseSequenceDetails": "%SiemensSeq%_ep2d_bold",
  "ReceiveCoilActiveElements": "HC1-7;NC1",
  "ReceiveCoilName": "HeadNeck_64",
  "ReconMatrixPE": 100,
  "RepetitionTime": 2,
  "SAR": 0.0808055,
  "ScanOptions": "FS",
  "ScanningSequence": "EP",
  "SequenceName": "_epfid2d1_100",
  "SequenceVariant": "SK",
  "SeriesDescription": "bold_100x100_s3_2x2x2_retino_150",
  "SeriesNumber": 3,
  "ShimSetting": [-5467, -11522, -1299, 496, -16, -246, -103, 19],
  "SliceThickness": 2,
  "SliceTiming": [1.485, 0, 0.99, 0.0825, 1.0725, 0.165, 1.155, 0.2475, 1.2375, 0.33, 1.32, 0.4125, 1.4025, 0.5775, 1.5675, 0.66, 1.65, 0.7425, 1.7325, 0.825, 1.815, 0.9075, 1.8975, 0.495, 1.485, 0, 0.99, 0.0825, 1.0725, 0.165, 1.155, 0.2475, 1.2375, 0.33, 1.32, 0.4125, 1.4025, 0.5775, 1.5675, 0.66, 1.65, 0.7425, 1.7325, 0.825, 1.815, 0.9075, 1.8975, 0.495, 1.485, 0, 0.99, 0.0825, 1.0725, 0.165, 1.155, 0.2475, 1.2375, 0.33, 1.32, 0.4125, 1.4025, 0.5775, 1.5675, 0.66, 1.65, 0.7425, 1.7325, 0.825, 1.815, 0.9075, 1.8975, 0.495],
  "SoftwareVersions": "syngo_MR_E11",
  "SpacingBetweenSlices": 2,
  "StationName": "AWP166078",
  "TaskName": "retinotopy",
  "TotalReadoutTime": 0.0534586,
  "TxRefAmp": 214.219,
  "dcmmeta_affine": [
    [-2.0, 9.237798792582907e-08, -2.494008731446229e-05, 100.09884643554688],
    [9.190073910758656e-07, 1.9989010095596313, -0.06629329174757004, -95.54011535644531],
    [-2.4923319870140404e-05, 0.06629329174757004, 1.9989010095596313, -63.81886672973633],
    [0.0, 0.0, 0.0, 1.0]
],
  "dcmmeta_reorient_transform": [
    [0.0, -1.0, 0.0, 99.0],
    [1.0, 0.0, 0.0, 0.0],
    [0.0, 0.0, 1.0, 0.0],
    [0.0, 0.0, 0.0, 1.0]
],
  "dcmmeta_shape": [100, 100, 72, 150],
  "dcmmeta_slice_dim": 2,
  "dcmmeta_version": 0.6,
  "global": {
    "const": {
      "AcquisitionMatrix": [100, 0, 0, 100],
      "AngioFlag": "N",
      "BitsAllocated": 16,
      "BitsStored": 12,
      "BodyPartExamined": "BRAIN",
      "Columns": 900,
      "EchoNumbers": 1,
      "EchoTime": 34.0,
      "EchoTrainLength": 100,
      "FlipAngle": 90.0,
      "HighBit": 11,
      "ImageOrientationPatient": [0.99999999992225, -4.595037e-07, -1.246166e-05, 4.6188993e-08, 0.99945049901382, -0.0331466441894],
      "ImagePositionPatient": [-900.09889233151, -901.91111318248, -30.728547747005],
      "ImageType": [
        "ORIGINAL",
        "PRIMARY",
        "M",
        "ND",
        "MOSAIC"
],
      "ImagedNucleus": "1H",
      "ImagingFrequency": 123.25776,
      "InPlanePhaseEncodingDirection": "COL",
      "MRAcquisitionType": "2D",
      "MagneticFieldStrength": 3.0,
      "Manufacturer": "SIEMENS",
      "ManufacturerModelName": "Prisma",
      "Modality": "MR",
      "NumberOfAverages": 1.0,
      "NumberOfPhaseEncodingSteps": 100,
      "PercentPhaseFieldOfView": 100.0,
      "PercentSampling": 100.0,
      "PerformedProcedureStepStartTime": "110417.131000",
      "PhotometricInterpretation": "MONOCHROME2",
      "PixelBandwidth": 2380.0,
      "PixelRepresentation": 0,
      "PixelSpacing": [2.0, 2.0],
      "ProtocolName": "bold_100x100_s3_2x2x2_retino_150",
      "RepetitionTime": 2000.0,
      "Rows": 900,
      "SAR": 0.08080550004819,
      "SamplesPerPixel": 1,
      "ScanOptions": "FS",
      "ScanningSequence": "EP",
      "SequenceName": "*epfid2d1_100",
      "SequenceVariant": "SK",
      "SeriesDescription": "bold_100x100_s3_2x2x2_retino_150",
      "SeriesNumber": 3,
      "SeriesTime": "110832.082000",
      "SliceLocation": -60.61821340579,
      "SliceThickness": 2.0,
      "SmallestImagePixelValue": 0,
      "SoftwareVersions": "syngo MR E11",
      "SpacingBetweenSlices": 1.9999999932748,
      "SpecificCharacterSet": "ISO_IR 100",
      "StudyID": "1",
      "StudyTime": "110417.034000",
      "TransmitCoilName": "Body",
      "VariableFlipAngleFlag": "N",
      "WindowCenterWidthExplanation": "Algo1",
      "dBdt": 0.0},
    "slices": {}
  },
  "time": {
    "samples": {
      "AcquisitionNumber": [1, 2, 3, 4, 5, 6, 7, 8, 9, 10, 11, 12, 13, 14, 15, 16, 17, 18, 19, 20, 21, 22, 23, 24, 25, 26, 27, 28, 29, 30, 31, 32, 33, 34, 35, 36, 37, 38, 39, 40, 41, 42, 43, 44, 45, 46, 47, 48, 49, 50, 51, 52, 53, 54, 55, 56, 57, 58, 59, 60, 61, 62, 63, 64, 65, 66, 67, 68, 69, 70, 71, 72, 73, 74, 75, 76, 77, 78, 79, 80, 81, 82, 83, 84, 85, 86, 87, 88, 89, 90, 91, 92, 93, 94, 95, 96, 97, 98, 99, 100, 101, 102, 103, 104, 105, 106, 107, 108, 109, 110, 111, 112, 113, 114, 115, 116, 117, 118, 119, 120, 121, 122, 123, 124, 125, 126, 127, 128, 129, 130, 131, 132, 133, 134, 135, 136, 137, 138, 139, 140, 141, 142, 143, 144, 145, 146, 147, 148, 149, 150],
      "AcquisitionTime": ["110829.897500", "110831.897500", "110833.897500", "110835.897500", "110837.897500", "110839.897500", "110841.897500", "110843.897500", "110845.897500", "110847.897500", "110849.897500", "110851.897500", "110853.897500", "110855.897500", "110857.897500", "110859.897500", "110901.897500", "110903.897500", "110905.897500", "110907.897500", "110909.897500", "110911.897500", "110913.897500", "110915.897500", "110917.897500", "110919.897500", "110921.897500", "110923.897500", "110925.897500", "110927.897500", "110929.897500", "110931.897500", "110933.897500", "110935.897500", "110937.897500", "110939.897500", "110941.897500", "110943.897500", "110945.897500", "110947.897500", "110949.897500", "110951.897500", "110953.897500", "110955.897500", "110957.897500", "110959.897500", "111001.897500", "111003.897500", "111005.897500", "111007.897500", "111009.897500", "111011.897500", "111013.897500", "111015.897500", "111017.897500", "111019.897500", "111021.897500", "111023.897500", "111025.897500", "111027.897500", "111029.897500", "111031.897500", "111033.897500", "111035.897500", "111037.897500", "111039.897500", "111041.897500", "111043.897500", "111045.897500", "111047.897500", "111049.897500", "111051.897500", "111053.897500", "111055.897500", "111057.897500", "111059.897500", "111101.897500", "111103.897500", "111105.897500", "111107.897500", "111109.897500", "111111.897500", "111113.897500", "111115.897500", "111117.897500", "111119.897500", "111121.897500", "111123.897500", "111125.897500", "111127.897500", "111129.897500", "111131.897500", "111133.897500", "111135.897500", "111137.897500", "111139.897500", "111141.897500", "111143.897500", "111145.897500", "111147.897500", "111149.897500", "111151.897500", "111153.897500", "111155.897500", "111157.897500", "111159.897500", "111201.897500", "111203.897500", "111205.897500", "111207.897500", "111209.897500", "111211.897500", "111213.897500", "111215.897500", "111217.897500", "111219.897500", "111221.897500", "111223.897500", "111225.897500", "111227.897500", "111229.897500", "111231.897500", "111233.897500", "111235.897500", "111237.897500", "111239.897500", "111241.897500", "111243.897500", "111245.897500", "111247.897500", "111249.897500", "111251.897500", "111253.897500", "111255.897500", "111257.897500", "111259.897500", "111301.897500", "111303.897500", "111305.897500", "111307.897500", "111309.897500", "111311.897500", "111313.897500", "111315.897500", "111317.897500", "111319.897500", "111321.897500", "111323.897500", "111325.897500", "111327.897500"],
      "ContentTime": ["110832.086000", "110833.581000", "110835.582000", "110837.582000", "110839.582000", "110841.582000", "110843.582000", "110845.581000", "110847.581000", "110849.581000", "110851.581000", "110853.582000", "110855.582000", "110857.583000", "110859.582000", "110901.581000", "110903.581000", "110905.581000", "110907.581000", "110909.582000", "110911.583000", "110913.582000", "110915.582000", "110917.583000", "110919.582000", "110921.582000", "110923.582000", "110925.582000", "110927.583000", "110929.582000", "110931.582000", "110933.583000", "110935.582000", "110937.581000", "110939.582000", "110941.582000", "110943.581000", "110945.582000", "110947.583000", "110949.582000", "110951.582000", "110953.583000", "110955.581000", "110957.581000", "110959.581000", "111001.581000", "111003.583000", "111005.582000", "111007.583000", "111009.602000", "111011.581000", "111013.582000", "111015.582000", "111017.581000", "111019.585000", "111021.582000", "111023.582000", "111025.583000", "111027.583000", "111029.581000", "111031.581000", "111033.582000", "111035.582000", "111037.582000", "111039.582000", "111041.583000", "111043.582000", "111045.582000", "111047.581000", "111049.582000", "111051.582000", "111053.581000", "111055.582000", "111057.582000", "111059.583000", "111101.582000", "111103.583000", "111105.584000", "111108.081000", "111110.082000", "111111.582000", "111113.582000", "111115.583000", "111117.583000", "111119.582000", "111121.581000", "111123.581000", "111125.581000", "111127.581000", "111129.583000", "111131.583000", "111133.582000", "111135.582000", "111137.583000", "111139.582000", "111141.581000", "111143.582000", "111145.581000", "111147.582000", "111149.582000", "111151.583000", "111153.583000", "111155.582000", "111157.581000", "111159.582000", "111201.582000", "111203.582000", "111205.583000", "111207.582000", "111209.582000", "111211.583000", "111213.582000", "111215.581000", "111217.582000", "111219.581000", "111221.583000", "111223.582000", "111225.583000", "111227.583000", "111229.582000", "111231.582000", "111233.582000", "111235.582000", "111237.581000", "111239.582000", "111241.583000", "111243.583000", "111245.582000", "111247.583000", "111249.581000", "111251.581000", "111253.582000", "111255.590000", "111257.583000", "111259.582000", "111301.582000", "111303.583000", "111305.583000", "111307.582000", "111309.582000", "111311.582000", "111313.582000", "111315.582000", "111317.583000", "111319.582000", "111321.582000", "111323.583000", "111325.581000", "111327.582000", "111329.472000"],
      "InstanceCreationTime": ["110832.086000", "110833.581000", "110835.582000", "110837.582000", "110839.582000", "110841.582000", "110843.582000", "110845.581000", "110847.581000", "110849.581000", "110851.581000", "110853.582000", "110855.582000", "110857.583000", "110859.582000", "110901.581000", "110903.581000", "110905.581000", "110907.581000", "110909.582000", "110911.583000", "110913.582000", "110915.582000", "110917.583000", "110919.582000", "110921.582000", "110923.582000", "110925.582000", "110927.583000", "110929.582000", "110931.582000", "110933.583000", "110935.582000", "110937.581000", "110939.582000", "110941.582000", "110943.581000", "110945.582000", "110947.583000", "110949.582000", "110951.582000", "110953.583000", "110955.581000", "110957.581000", "110959.581000", "111001.581000", "111003.583000", "111005.582000", "111007.583000", "111009.602000", "111011.581000", "111013.582000", "111015.582000", "111017.581000", "111019.585000", "111021.582000", "111023.582000", "111025.583000", "111027.583000", "111029.581000", "111031.581000", "111033.582000", "111035.582000", "111037.582000", "111039.582000", "111041.583000", "111043.582000", "111045.582000", "111047.581000", "111049.582000", "111051.582000", "111053.581000", "111055.582000", "111057.582000", "111059.583000", "111101.582000", "111103.583000", "111105.584000", "111108.081000", "111110.082000", "111111.582000", "111113.582000", "111115.583000", "111117.583000", "111119.582000", "111121.581000", "111123.581000", "111125.581000", "111127.581000", "111129.583000", "111131.583000", "111133.582000", "111135.582000", "111137.583000", "111139.582000", "111141.581000", "111143.582000", "111145.581000", "111147.582000", "111149.582000", "111151.583000", "111153.583000", "111155.582000", "111157.581000", "111159.582000", "111201.582000", "111203.582000", "111205.583000", "111207.582000", "111209.582000", "111211.583000", "111213.582000", "111215.581000", "111217.582000", "111219.581000", "111221.583000", "111223.582000", "111225.583000", "111227.583000", "111229.582000", "111231.582000", "111233.582000", "111235.582000", "111237.581000", "111239.582000", "111241.583000", "111243.583000", "111245.582000", "111247.583000", "111249.581000", "111251.581000", "111253.582000", "111255.590000", "111257.583000", "111259.582000", "111301.582000", "111303.583000", "111305.583000", "111307.582000", "111309.582000", "111311.582000", "111313.582000", "111315.582000", "111317.583000", "111319.582000", "111321.582000", "111323.583000", "111325.581000", "111327.582000", "111329.472000"],
      "InstanceNumber": [1, 2, 3, 4, 5, 6, 7, 8, 9, 10, 11, 12, 13, 14, 15, 16, 17, 18, 19, 20, 21, 22, 23, 24, 25, 26, 27, 28, 29, 30, 31, 32, 33, 34, 35, 36, 37, 38, 39, 40, 41, 42, 43, 44, 45, 46, 47, 48, 49, 50, 51, 52, 53, 54, 55, 56, 57, 58, 59, 60, 61, 62, 63, 64, 65, 66, 67, 68, 69, 70, 71, 72, 73, 74, 75, 76, 77, 78, 79, 80, 81, 82, 83, 84, 85, 86, 87, 88, 89, 90, 91, 92, 93, 94, 95, 96, 97, 98, 99, 100, 101, 102, 103, 104, 105, 106, 107, 108, 109, 110, 111, 112, 113, 114, 115, 116, 117, 118, 119, 120, 121, 122, 123, 124, 125, 126, 127, 128, 129, 130, 131, 132, 133, 134, 135, 136, 137, 138, 139, 140, 141, 142, 143, 144, 145, 146, 147, 148, 149, 150],
      "LargestImagePixelValue": [3339, 3278, 3287, 3204, 3214, 3251, 3225, 3239, 3232, 3268, 3259, 3244, 3196, 3210, 3229, 3248, 3282, 3281, 3276, 3240, 3269, 3227, 3252, 3192, 3240, 3268, 3208, 3222, 3251, 3251, 3235, 3231, 3189, 3202, 3226, 3225, 3210, 3263, 3190, 3174, 3178, 3229, 3259, 3227, 3205, 3193, 3238, 3203, 3228, 3200, 3193, 3204, 3197, 3186, 3164, 3191, 3248, 3228, 3188, 3223, 3197, 3209, 3220, 3235, 3199, 3206, 3195, 3189, 3197, 3206, 3188, 3206, 3209, 3206, 3140, 3166, 3153, 3225, 3235, 3215, 3131, 3125, 3150, 3160, 3189, 3130, 3186, 3137, 3161, 3201, 3104, 3155, 3160, 3166, 3218, 3186, 3170, 3110, 3130, 3141, 3144, 3161, 3179, 3177, 3100, 3136, 3117, 3188, 3073, 3105, 3153, 3146, 3165, 3145, 3107, 3130, 3141, 3125, 3122, 3136, 3081, 3148, 3116, 3131, 3131, 3163, 3128, 3112, 3113, 3111, 3111, 3149, 3117, 3107, 3141, 3147, 3130, 3108, 3087, 3093, 3157, 3092, 3093, 3093, 3143, 3135, 3104, 3079, 3102, 3089],
      "WindowCenter": [760.0, 759.0, 759.0, 760.0, 760.0, 759.0, 759.0, 760.0, 759.0, 759.0, 758.0, 759.0, 760.0, 761.0, 760.0, 759.0, 758.0, 759.0, 759.0, 759.0, 759.0, 758.0, 759.0, 759.0, 758.0, 758.0, 759.0, 758.0, 758.0, 757.0, 758.0, 758.0, 759.0, 759.0, 758.0, 758.0, 757.0, 758.0, 759.0, 760.0, 759.0, 758.0, 758.0, 757.0, 758.0, 759.0, 759.0, 757.0, 758.0, 758.0, 758.0, 759.0, 758.0, 759.0, 758.0, 757.0, 757.0, 758.0, 758.0, 757.0, 757.0, 757.0, 757.0, 757.0, 757.0, 758.0, 758.0, 757.0, 757.0, 758.0, 758.0, 757.0, 756.0, 757.0, 758.0, 759.0, 758.0, 757.0, 757.0, 758.0, 759.0, 758.0, 757.0, 756.0, 757.0, 757.0, 757.0, 757.0, 757.0, 757.0, 757.0, 759.0, 758.0, 756.0, 756.0, 756.0, 757.0, 758.0, 758.0, 757.0, 757.0, 756.0, 757.0, 757.0, 757.0, 757.0, 756.0, 758.0, 758.0, 758.0, 757.0, 756.0, 757.0, 757.0, 757.0, 756.0, 757.0, 756.0, 756.0, 757.0, 757.0, 758.0, 757.0, 756.0, 756.0, 757.0, 757.0, 757.0, 757.0, 757.0, 757.0, 757.0, 757.0, 758.0, 757.0, 756.0, 756.0, 757.0, 756.0, 756.0, 756.0, 758.0, 758.0, 757.0, 756.0, 756.0, 756.0, 756.0, 758.0, 757.0],
      "WindowWidth": [1658.0, 1655.0, 1656.0, 1659.0, 1658.0, 1656.0, 1658.0, 1658.0, 1655.0, 1656.0, 1653.0, 1656.0, 1660.0, 1663.0, 1660.0, 1656.0, 1654.0, 1656.0, 1657.0, 1657.0, 1655.0, 1655.0, 1657.0, 1656.0, 1653.0, 1654.0, 1655.0, 1654.0, 1653.0, 1652.0, 1653.0, 1654.0, 1655.0, 1656.0, 1653.0, 1652.0, 1650.0, 1653.0, 1657.0, 1658.0, 1656.0, 1653.0, 1652.0, 1650.0, 1654.0, 1656.0, 1655.0, 1651.0, 1653.0, 1654.0, 1654.0, 1655.0, 1654.0, 1654.0, 1653.0, 1651.0, 1650.0, 1652.0, 1652.0, 1651.0, 1650.0, 1650.0, 1649.0, 1650.0, 1650.0, 1652.0, 1654.0, 1651.0, 1649.0, 1653.0, 1653.0, 1650.0, 1648.0, 1649.0, 1653.0, 1657.0, 1654.0, 1650.0, 1650.0, 1652.0, 1655.0, 1653.0, 1651.0, 1648.0, 1649.0, 1649.0, 1651.0, 1651.0, 1651.0, 1651.0, 1651.0, 1656.0, 1653.0, 1647.0, 1646.0, 1646.0, 1650.0, 1653.0, 1653.0, 1650.0, 1648.0, 1648.0, 1649.0, 1651.0, 1649.0, 1651.0, 1648.0, 1652.0, 1654.0, 1653.0, 1651.0, 1648.0, 1649.0, 1650.0, 1649.0, 1648.0, 1650.0, 1648.0, 1648.0, 1650.0, 1651.0, 1652.0, 1650.0, 1648.0, 1647.0, 1648.0, 1648.0, 1650.0, 1649.0, 1648.0, 1648.0, 1648.0, 1650.0, 1652.0, 1651.0, 1647.0, 1647.0, 1649.0, 1648.0, 1647.0, 1648.0, 1652.0, 1652.0, 1650.0, 1647.0, 1646.0, 1646.0, 1647.0, 1651.0, 1650.0]
    },
    "slices": {}
  }
}