{
  "AcquisitionMatrixPE": 100,
  "AcquisitionNumber": 1,
  "AcquisitionTime": "11:38:16.082500",
  "BandwidthPerPixelPhaseEncode": 18.519,
  "BaseResolution": 100,
  "BodyPartExamined": "BRAIN",
  "ConsistencyInfo": "N4_VE11C_LATEST_20160120",
  "ConversionSoftware": "dcm2niix",
  "ConversionSoftwareVersion": "v1.0.20180622 GCC4.9.2",
  "DerivedVendorReportedEchoSpacing": 0.000539986,
  "DeviceSerialNumber": "166078",
  "DwellTime": 2.1e-06,
  "EchoTime": 0.034,
  "EchoTrainLength": 100,
  "EffectiveEchoSpacing": 0.000539986,
  "FlipAngle": 90,
  "ImageOrientationPatientDICOM": [1, -4.59504e-07, -1.24617e-05, 4.6189e-08, 0.999451, -0.0331466],
  "ImageType": [
    "ORIGINAL",
    "PRIMARY",
    "M",
    "ND",
    "MOSAIC"
],
  "InPlanePhaseEncodingDirectionDICOM": "COL",
  "InstitutionAddress": "Street_StreetNo_Bei_Jing_District_CN_ZIP",
  "InstitutionName": "BeiJing_Normal_University",
  "InstitutionalDepartmentName": "Department",
  "MRAcquisitionType": "2D",
  "MagneticFieldStrength": 3,
  "Manufacturer": "Siemens",
  "ManufacturersModelName": "Prisma",
  "Modality": "MR",
  "MultibandAccelerationFactor": 3,
  "PartialFourier": 1,
  "PatientPosition": "HFS",
  "PercentPhaseFOV": 100,
  "PhaseEncodingDirection": "j-",
  "PhaseEncodingSteps": 100,
  "PhaseResolution": 1,
  "PixelBandwidth": 2380,
  "ProcedureStepDescription": "BNU_P2018_64CH_Zhen.ZongLei",
  "ProtocolName": "bold_100x100_s3_2x2x2_retino_150",
  "PulseSequenceDetails": "%SiemensSeq%_ep2d_bold",
  "ReceiveCoilActiveElements": "HC1-7;NC1",
  "ReceiveCoilName": "HeadNeck_64",
  "ReconMatrixPE": 100,
  "RepetitionTime": 2,
  "SAR": 0.0808055,
  "ScanOptions": "FS",
  "ScanningSequence": "EP",
  "SequenceName": "_epfid2d1_100",
  "SequenceVariant": "SK",
  "SeriesDescription": "bold_100x100_s3_2x2x2_retino_150",
  "SeriesNumber": 7,
  "ShimSetting": [-5467, -11522, -1299, 496, -16, -246, -103, 19],
  "SliceThickness": 2,
  "SliceTiming": [1.485, 0, 0.99, 0.0825, 1.0725, 0.165, 1.155, 0.2475, 1.2375, 0.33, 1.32, 0.4125, 1.4025, 0.5775, 1.5675, 0.66, 1.65, 0.7425, 1.7325, 0.825, 1.815, 0.9075, 1.8975, 0.495, 1.485, 0, 0.99, 0.0825, 1.0725, 0.165, 1.155, 0.2475, 1.2375, 0.33, 1.32, 0.4125, 1.4025, 0.5775, 1.5675, 0.66, 1.65, 0.7425, 1.7325, 0.825, 1.815, 0.9075, 1.8975, 0.495, 1.485, 0, 0.99, 0.0825, 1.0725, 0.165, 1.155, 0.2475, 1.2375, 0.33, 1.32, 0.4125, 1.4025, 0.5775, 1.5675, 0.66, 1.65, 0.7425, 1.7325, 0.825, 1.815, 0.9075, 1.8975, 0.495],
  "SoftwareVersions": "syngo_MR_E11",
  "SpacingBetweenSlices": 2,
  "StationName": "AWP166078",
  "TaskName": "retinotopy",
  "TotalReadoutTime": 0.0534586,
  "TxRefAmp": 214.219,
  "dcmmeta_affine": [
    [-2.0, 9.237798792582907e-08, -2.494008731446229e-05, 100.09884643554688],
    [9.190073910758656e-07, 1.9989010095596313, -0.06629329174757004, -95.54011535644531],
    [-2.4923319870140404e-05, 0.06629329174757004, 1.9989010095596313, -63.81886672973633],
    [0.0, 0.0, 0.0, 1.0]
],
  "dcmmeta_reorient_transform": [
    [0.0, -1.0, 0.0, 99.0],
    [1.0, 0.0, 0.0, 0.0],
    [0.0, 0.0, 1.0, 0.0],
    [0.0, 0.0, 0.0, 1.0]
],
  "dcmmeta_shape": [100, 100, 72, 150],
  "dcmmeta_slice_dim": 2,
  "dcmmeta_version": 0.6,
  "global": {
    "const": {
      "AcquisitionMatrix": [100, 0, 0, 100],
      "AngioFlag": "N",
      "BitsAllocated": 16,
      "BitsStored": 12,
      "BodyPartExamined": "BRAIN",
      "Columns": 900,
      "EchoNumbers": 1,
      "EchoTime": 34.0,
      "EchoTrainLength": 100,
      "FlipAngle": 90.0,
      "HighBit": 11,
      "ImageOrientationPatient": [0.99999999992225, -4.595037e-07, -1.246166e-05, 4.6188993e-08, 0.99945049901382, -0.0331466441894],
      "ImagePositionPatient": [-900.09889233151, -901.91111318248, -30.728547747005],
      "ImageType": [
        "ORIGINAL",
        "PRIMARY",
        "M",
        "ND",
        "MOSAIC"
],
      "ImagedNucleus": "1H",
      "ImagingFrequency": 123.257762,
      "InPlanePhaseEncodingDirection": "COL",
      "MRAcquisitionType": "2D",
      "MagneticFieldStrength": 3.0,
      "Manufacturer": "SIEMENS",
      "ManufacturerModelName": "Prisma",
      "Modality": "MR",
      "NumberOfAverages": 1.0,
      "NumberOfPhaseEncodingSteps": 100,
      "PercentPhaseFieldOfView": 100.0,
      "PercentSampling": 100.0,
      "PerformedProcedureStepStartTime": "110417.131000",
      "PhotometricInterpretation": "MONOCHROME2",
      "PixelBandwidth": 2380.0,
      "PixelRepresentation": 0,
      "PixelSpacing": [2.0, 2.0],
      "ProtocolName": "bold_100x100_s3_2x2x2_retino_150",
      "RepetitionTime": 2000.0,
      "Rows": 900,
      "SAR": 0.08080550004819,
      "SamplesPerPixel": 1,
      "ScanOptions": "FS",
      "ScanningSequence": "EP",
      "SequenceName": "*epfid2d1_100",
      "SequenceVariant": "SK",
      "SeriesDescription": "bold_100x100_s3_2x2x2_retino_150",
      "SeriesNumber": 7,
      "SeriesTime": "113819.149000",
      "SliceLocation": -60.61821340579,
      "SliceThickness": 2.0,
      "SmallestImagePixelValue": 0,
      "SoftwareVersions": "syngo MR E11",
      "SpacingBetweenSlices": 1.9999999932748,
      "SpecificCharacterSet": "ISO_IR 100",
      "StudyID": "1",
      "StudyTime": "110417.034000",
      "TransmitCoilName": "Body",
      "VariableFlipAngleFlag": "N",
      "WindowCenterWidthExplanation": "Algo1",
      "dBdt": 0.0},
    "slices": {}
  },
  "time": {
    "samples": {
      "AcquisitionNumber": [1, 2, 3, 4, 5, 6, 7, 8, 9, 10, 11, 12, 13, 14, 15, 16, 17, 18, 19, 20, 21, 22, 23, 24, 25, 26, 27, 28, 29, 30, 31, 32, 33, 34, 35, 36, 37, 38, 39, 40, 41, 42, 43, 44, 45, 46, 47, 48, 49, 50, 51, 52, 53, 54, 55, 56, 57, 58, 59, 60, 61, 62, 63, 64, 65, 66, 67, 68, 69, 70, 71, 72, 73, 74, 75, 76, 77, 78, 79, 80, 81, 82, 83, 84, 85, 86, 87, 88, 89, 90, 91, 92, 93, 94, 95, 96, 97, 98, 99, 100, 101, 102, 103, 104, 105, 106, 107, 108, 109, 110, 111, 112, 113, 114, 115, 116, 117, 118, 119, 120, 121, 122, 123, 124, 125, 126, 127, 128, 129, 130, 131, 132, 133, 134, 135, 136, 137, 138, 139, 140, 141, 142, 143, 144, 145, 146, 147, 148, 149, 150],
      "AcquisitionTime": ["113816.082500", "113818.082500", "113820.082500", "113822.082500", "113824.082500", "113826.082500", "113828.082500", "113830.082500", "113832.082500", "113834.082500", "113836.082500", "113838.082500", "113840.082500", "113842.082500", "113844.082500", "113846.082500", "113848.082500", "113850.082500", "113852.082500", "113854.082500", "113856.082500", "113858.082500", "113900.082500", "113902.082500", "113904.082500", "113906.082500", "113908.082500", "113910.082500", "113912.082500", "113914.082500", "113916.082500", "113918.082500", "113920.082500", "113922.082500", "113924.082500", "113926.082500", "113928.082500", "113930.082500", "113932.082500", "113934.082500", "113936.082500", "113938.082500", "113940.082500", "113942.082500", "113944.082500", "113946.082500", "113948.082500", "113950.082500", "113952.082500", "113954.082500", "113956.082500", "113958.082500", "114000.082500", "114002.082500", "114004.082500", "114006.082500", "114008.082500", "114010.082500", "114012.082500", "114014.082500", "114016.082500", "114018.082500", "114020.082500", "114022.082500", "114024.082500", "114026.082500", "114028.082500", "114030.082500", "114032.082500", "114034.082500", "114036.082500", "114038.082500", "114040.082500", "114042.082500", "114044.082500", "114046.082500", "114048.082500", "114050.082500", "114052.082500", "114054.082500", "114056.082500", "114058.082500", "114100.082500", "114102.082500", "114104.082500", "114106.082500", "114108.082500", "114110.082500", "114112.082500", "114114.082500", "114116.082500", "114118.082500", "114120.082500", "114122.082500", "114124.082500", "114126.082500", "114128.082500", "114130.082500", "114132.082500", "114134.082500", "114136.082500", "114138.082500", "114140.082500", "114142.082500", "114144.082500", "114146.082500", "114148.082500", "114150.082500", "114152.082500", "114154.082500", "114156.082500", "114158.082500", "114200.082500", "114202.082500", "114204.082500", "114206.082500", "114208.082500", "114210.082500", "114212.082500", "114214.082500", "114216.082500", "114218.082500", "114220.082500", "114222.082500", "114224.082500", "114226.082500", "114228.082500", "114230.082500", "114232.082500", "114234.082500", "114236.082500", "114238.082500", "114240.082500", "114242.082500", "114244.082500", "114246.082500", "114248.082500", "114250.082500", "114252.082500", "114254.082500", "114256.082500", "114258.082500", "114300.082500", "114302.082500", "114304.082500", "114306.082500", "114308.082500", "114310.082500", "114312.082500", "114314.082500"],
      "ContentTime": ["113819.153000", "113820.648000", "113822.647000", "113824.647000", "113826.647000", "113828.647000", "113830.648000", "113832.648000", "113834.648000", "113836.648000", "113838.649000", "113840.648000", "113842.647000", "113844.647000", "113846.647000", "113848.648000", "113850.647000", "113852.649000", "113854.648000", "113856.648000", "113858.648000", "113900.647000", "113902.647000", "113904.647000", "113906.647000", "113908.648000", "113910.648000", "113912.649000", "113914.648000", "113916.647000", "113918.647000", "113920.648000", "113922.647000", "113924.648000", "113926.647000", "113928.648000", "113930.648000", "113932.647000", "113934.647000", "113936.648000", "113938.647000", "113940.647000", "113942.648000", "113944.648000", "113946.649000", "113948.649000", "113950.647000", "113952.648000", "113954.647000", "113956.647000", "113958.648000", "114000.648000", "114002.649000", "114004.648000", "114006.648000", "114008.647000", "114010.648000", "114012.647000", "114014.648000", "114016.647000", "114018.648000", "114020.649000", "114022.649000", "114024.647000", "114026.647000", "114028.648000", "114030.648000", "114032.648000", "114034.647000", "114036.648000", "114038.649000", "114040.648000", "114042.647000", "114044.647000", "114046.647000", "114048.648000", "114050.647000", "114052.648000", "114054.647000", "114056.649000", "114058.648000", "114100.647000", "114102.648000", "114104.647000", "114106.648000", "114108.648000", "114110.648000", "114112.649000", "114114.649000", "114116.647000", "114118.647000", "114120.648000", "114122.647000", "114124.648000", "114126.647000", "114128.648000", "114130.648000", "114132.649000", "114134.648000", "114136.648000", "114138.647000", "114140.647000", "114142.648000", "114144.648000", "114146.647000", "114148.649000", "114150.649000", "114152.648000", "114154.647000", "114156.648000", "114158.648000", "114200.648000", "114202.648000", "114204.648000", "114206.649000", "114208.649000", "114210.648000", "114212.648000", "114214.648000", "114216.647000", "114218.648000", "114220.648000", "114222.649000", "114224.649000", "114226.647000", "114228.647000", "114230.647000", "114232.648000", "114234.648000", "114236.647000", "114238.648000", "114240.649000", "114242.657000", "114244.647000", "114246.648000", "114248.648000", "114250.648000", "114252.648000", "114254.648000", "114256.648000", "114258.649000", "114300.649000", "114302.648000", "114304.648000", "114306.648000", "114308.648000", "114310.648000", "114312.648000", "114314.647000", "114316.246000"],
      "InstanceCreationTime": ["113819.153000", "113820.648000", "113822.647000", "113824.647000", "113826.647000", "113828.647000", "113830.648000", "113832.648000", "113834.648000", "113836.648000", "113838.649000", "113840.648000", "113842.647000", "113844.647000", "113846.647000", "113848.648000", "113850.647000", "113852.649000", "113854.648000", "113856.648000", "113858.648000", "113900.647000", "113902.647000", "113904.647000", "113906.647000", "113908.648000", "113910.648000", "113912.649000", "113914.648000", "113916.647000", "113918.647000", "113920.648000", "113922.647000", "113924.648000", "113926.647000", "113928.648000", "113930.648000", "113932.647000", "113934.647000", "113936.648000", "113938.647000", "113940.647000", "113942.648000", "113944.648000", "113946.649000", "113948.649000", "113950.647000", "113952.648000", "113954.647000", "113956.647000", "113958.648000", "114000.648000", "114002.649000", "114004.648000", "114006.648000", "114008.647000", "114010.648000", "114012.647000", "114014.648000", "114016.647000", "114018.648000", "114020.649000", "114022.649000", "114024.647000", "114026.647000", "114028.648000", "114030.648000", "114032.648000", "114034.647000", "114036.648000", "114038.649000", "114040.648000", "114042.647000", "114044.647000", "114046.647000", "114048.648000", "114050.647000", "114052.648000", "114054.647000", "114056.649000", "114058.648000", "114100.647000", "114102.648000", "114104.647000", "114106.648000", "114108.648000", "114110.648000", "114112.649000", "114114.649000", "114116.647000", "114118.647000", "114120.648000", "114122.647000", "114124.648000", "114126.647000", "114128.648000", "114130.648000", "114132.649000", "114134.648000", "114136.648000", "114138.647000", "114140.647000", "114142.648000", "114144.648000", "114146.647000", "114148.649000", "114150.649000", "114152.648000", "114154.647000", "114156.648000", "114158.648000", "114200.648000", "114202.648000", "114204.648000", "114206.649000", "114208.649000", "114210.648000", "114212.648000", "114214.648000", "114216.647000", "114218.648000", "114220.648000", "114222.649000", "114224.649000", "114226.647000", "114228.647000", "114230.647000", "114232.648000", "114234.648000", "114236.647000", "114238.648000", "114240.649000", "114242.657000", "114244.647000", "114246.648000", "114248.648000", "114250.648000", "114252.648000", "114254.648000", "114256.648000", "114258.649000", "114300.649000", "114302.648000", "114304.648000", "114306.648000", "114308.648000", "114310.648000", "114312.648000", "114314.647000", "114316.246000"],
      "InstanceNumber": [1, 2, 3, 4, 5, 6, 7, 8, 9, 10, 11, 12, 13, 14, 15, 16, 17, 18, 19, 20, 21, 22, 23, 24, 25, 26, 27, 28, 29, 30, 31, 32, 33, 34, 35, 36, 37, 38, 39, 40, 41, 42, 43, 44, 45, 46, 47, 48, 49, 50, 51, 52, 53, 54, 55, 56, 57, 58, 59, 60, 61, 62, 63, 64, 65, 66, 67, 68, 69, 70, 71, 72, 73, 74, 75, 76, 77, 78, 79, 80, 81, 82, 83, 84, 85, 86, 87, 88, 89, 90, 91, 92, 93, 94, 95, 96, 97, 98, 99, 100, 101, 102, 103, 104, 105, 106, 107, 108, 109, 110, 111, 112, 113, 114, 115, 116, 117, 118, 119, 120, 121, 122, 123, 124, 125, 126, 127, 128, 129, 130, 131, 132, 133, 134, 135, 136, 137, 138, 139, 140, 141, 142, 143, 144, 145, 146, 147, 148, 149, 150],
      "LargestImagePixelValue": [3123, 3058, 2979, 3004, 3010, 2984, 2994, 2985, 2986, 2988, 2979, 2968, 3007, 3026, 3012, 3052, 2997, 3032, 3074, 3026, 3047, 3046, 3056, 3076, 3066, 3060, 3091, 3023, 3075, 3033, 3011, 2982, 3032, 3004, 3068, 3081, 3057, 3030, 3071, 3067, 3036, 3047, 3071, 3045, 3088, 3063, 3105, 3051, 3054, 3060, 3047, 3078, 3061, 3097, 3087, 3053, 3041, 3094, 3108, 3036, 3116, 3091, 3031, 3027, 3083, 3067, 3053, 3033, 3012, 3054, 3089, 3030, 3079, 3004, 3073, 3041, 3030, 3061, 3012, 3039, 3039, 3002, 3072, 3051, 3031, 3022, 3047, 3039, 3078, 3087, 3041, 3059, 3007, 3061, 3030, 3057, 3020, 3081, 3034, 3095, 3020, 3040, 3045, 3044, 3021, 3043, 3089, 3066, 3064, 3041, 3037, 3017, 3059, 3028, 3052, 3092, 3067, 3088, 3043, 3084, 3043, 3058, 3076, 3089, 3098, 3041, 3013, 3079, 3024, 3110, 3066, 3039, 3047, 3073, 3028, 3049, 3015, 3067, 3064, 3123, 3054, 3083, 3056, 3064, 3086, 3076, 3066, 2999, 3067, 2989],
      "WindowCenter": [759.0, 757.0, 756.0, 755.0, 755.0, 755.0, 756.0, 756.0, 755.0, 755.0, 755.0, 755.0, 755.0, 754.0, 755.0, 756.0, 755.0, 756.0, 756.0, 756.0, 756.0, 756.0, 755.0, 755.0, 755.0, 756.0, 757.0, 756.0, 757.0, 757.0, 756.0, 755.0, 756.0, 756.0, 756.0, 756.0, 756.0, 756.0, 755.0, 756.0, 757.0, 757.0, 756.0, 756.0, 757.0, 756.0, 756.0, 757.0, 757.0, 757.0, 756.0, 756.0, 755.0, 757.0, 757.0, 756.0, 756.0, 756.0, 756.0, 756.0, 757.0, 757.0, 756.0, 756.0, 756.0, 756.0, 757.0, 756.0, 755.0, 756.0, 758.0, 757.0, 757.0, 756.0, 758.0, 758.0, 757.0, 758.0, 758.0, 758.0, 757.0, 757.0, 758.0, 758.0, 758.0, 758.0, 758.0, 757.0, 757.0, 757.0, 757.0, 758.0, 757.0, 758.0, 758.0, 758.0, 758.0, 758.0, 757.0, 758.0, 757.0, 757.0, 757.0, 758.0, 757.0, 757.0, 756.0, 758.0, 758.0, 758.0, 758.0, 757.0, 757.0, 758.0, 758.0, 757.0, 756.0, 757.0, 757.0, 758.0, 758.0, 757.0, 756.0, 756.0, 757.0, 759.0, 758.0, 758.0, 756.0, 758.0, 758.0, 758.0, 757.0, 757.0, 757.0, 757.0, 756.0, 755.0, 756.0, 757.0, 759.0, 759.0, 757.0, 756.0, 757.0, 758.0, 758.0, 757.0, 757.0, 757.0],
      "WindowWidth": [1653.0, 1648.0, 1644.0, 1641.0, 1641.0, 1643.0, 1645.0, 1644.0, 1641.0, 1643.0, 1643.0, 1643.0, 1641.0, 1640.0, 1643.0, 1643.0, 1643.0, 1644.0, 1646.0, 1646.0, 1646.0, 1644.0, 1642.0, 1643.0, 1643.0, 1646.0, 1647.0, 1644.0, 1648.0, 1647.0, 1644.0, 1642.0, 1646.0, 1646.0, 1646.0, 1644.0, 1644.0, 1644.0, 1643.0, 1647.0, 1648.0, 1648.0, 1646.0, 1645.0, 1647.0, 1645.0, 1646.0, 1646.0, 1648.0, 1649.0, 1644.0, 1644.0, 1642.0, 1647.0, 1648.0, 1645.0, 1644.0, 1644.0, 1645.0, 1645.0, 1647.0, 1647.0, 1646.0, 1645.0, 1644.0, 1646.0, 1649.0, 1646.0, 1642.0, 1646.0, 1650.0, 1649.0, 1649.0, 1645.0, 1650.0, 1650.0, 1649.0, 1649.0, 1651.0, 1652.0, 1649.0, 1646.0, 1649.0, 1651.0, 1651.0, 1651.0, 1651.0, 1649.0, 1648.0, 1648.0, 1649.0, 1650.0, 1648.0, 1652.0, 1651.0, 1652.0, 1650.0, 1651.0, 1649.0, 1650.0, 1648.0, 1648.0, 1648.0, 1650.0, 1648.0, 1647.0, 1645.0, 1650.0, 1651.0, 1651.0, 1650.0, 1649.0, 1648.0, 1650.0, 1650.0, 1649.0, 1646.0, 1649.0, 1648.0, 1651.0, 1650.0, 1648.0, 1644.0, 1645.0, 1648.0, 1653.0, 1652.0, 1651.0, 1646.0, 1650.0, 1649.0, 1650.0, 1647.0, 1648.0, 1649.0, 1648.0, 1643.0, 1643.0, 1644.0, 1649.0, 1652.0, 1652.0, 1648.0, 1645.0, 1647.0, 1650.0, 1652.0, 1649.0, 1649.0, 1648.0]
    },
    "slices": {}
  }
}