{
 "AcquisitionMatrixPE": 100,
 "AcquisitionNumber": 1,
 "AcquisitionTime": "14:06:39.120000",
 "BandwidthPerPixelPhaseEncode": 18.519,
 "BaseResolution": 100,
 "BodyPartExamined": "BRAIN",
 "ConsistencyInfo": "N4_VE11C_LATEST_20160120",
 "ConversionSoftware": "dcm2niix",
 "ConversionSoftwareVersion": "v1.0.20180622 GCC4.9.2",
 "DerivedVendorReportedEchoSpacing": 0.000539986,
 "DeviceSerialNumber": "166078",
 "DwellTime": 2.1e-06,
 "EchoTime": 0.034,
 "EchoTrainLength": 100,
 "EffectiveEchoSpacing": 0.000539986,
 "FlipAngle": 90,
 "ImageOrientationPatientDICOM": [
  1,
  0,
  0,
  0,
  0.959314,
  -0.282341
 ],
 "ImageType": [
  "ORIGINAL",
  "PRIMARY",
  "M",
  "ND",
  "MOSAIC"
 ],
 "InPlanePhaseEncodingDirectionDICOM": "COL",
 "InstitutionAddress": "Street_StreetNo_Bei_Jing_District_CN_ZIP",
 "InstitutionName": "BeiJing_Normal_University",
 "InstitutionalDepartmentName": "Department",
 "MRAcquisitionType": "2D",
 "MagneticFieldStrength": 3,
 "Manufacturer": "Siemens",
 "ManufacturersModelName": "Prisma",
 "Modality": "MR",
 "MultibandAccelerationFactor": 3,
 "PartialFourier": 1,
 "PatientPosition": "HFS",
 "PercentPhaseFOV": 100,
 "PhaseEncodingDirection": "j-",
 "PhaseEncodingSteps": 100,
 "PhaseResolution": 1,
 "PixelBandwidth": 2380,
 "ProcedureStepDescription": "BNU_P2018_64CH_Zhen.ZongLei",
 "ProtocolName": "bold_100x100_s3_2x2x2_static_256",
 "PulseSequenceDetails": "%SiemensSeq%_ep2d_bold",
 "ReceiveCoilActiveElements": "HC1-7;NC1",
 "ReceiveCoilName": "HeadNeck_64",
 "ReconMatrixPE": 100,
 "RepetitionTime": 2,
 "SAR": 0.0858044,
 "ScanOptions": "FS",
 "ScanningSequence": "EP",
 "SequenceName": "_epfid2d1_100",
 "SequenceVariant": "SK",
 "SeriesDescription": "bold_100x100_s3_2x2x2_static_256",
 "SeriesNumber": 7,
 "ShimSetting": [
  -5458,
  -11481,
  -1288,
  427,
  2,
  -166,
  -130,
  77
 ],
 "SliceThickness": 2,
 "SliceTiming": [
  1.4825,
  0,
  0.99,
  0.0825,
  1.0725,
  0.165,
  1.155,
  0.2475,
  1.2375,
  0.33,
  1.3175,
  0.4125,
  1.4,
  0.5775,
  1.565,
  0.66,
  1.6475,
  0.7425,
  1.73,
  0.825,
  1.8125,
  0.9075,
  1.895,
  0.495,
  1.4825,
  0,
  0.99,
  0.0825,
  1.0725,
  0.165,
  1.155,
  0.2475,
  1.2375,
  0.33,
  1.3175,
  0.4125,
  1.4,
  0.5775,
  1.565,
  0.66,
  1.6475,
  0.7425,
  1.73,
  0.825,
  1.8125,
  0.9075,
  1.895,
  0.495,
  1.4825,
  0,
  0.99,
  0.0825,
  1.0725,
  0.165,
  1.155,
  0.2475,
  1.2375,
  0.33,
  1.3175,
  0.4125,
  1.4,
  0.5775,
  1.565,
  0.66,
  1.6475,
  0.7425,
  1.73,
  0.825,
  1.8125,
  0.9075,
  1.895,
  0.495
 ],
 "SoftwareVersions": "syngo_MR_E11",
 "SpacingBetweenSlices": 2,
 "StationName": "AWP166078",
 "TaskName": "imagenet",
 "TotalReadoutTime": 0.0534586,
 "TxRefAmp": 233.016,
 "dcmmeta_affine": [
  [
   -2.0,
   0.0,
   0.0,
   100.0
  ],
  [
   0.0,
   1.9186279773712158,
   -0.5646828413009644,
   -72.60266876220703
  ],
  [
   0.0,
   0.5646829009056091,
   1.9186278581619263,
   -108.11810302734375
  ],
  [
   0.0,
   0.0,
   0.0,
   1.0
  ]
 ],
 "dcmmeta_reorient_transform": [
  [
   0.0,
   -1.0,
   0.0,
   99.0
  ],
  [
   1.0,
   0.0,
   0.0,
   0.0
  ],
  [
   0.0,
   0.0,
   1.0,
   0.0
  ],
  [
   0.0,
   0.0,
   0.0,
   1.0
  ]
 ],
 "dcmmeta_shape": [
  100,
  100,
  72,
  256
 ],
 "dcmmeta_slice_dim": 2,
 "dcmmeta_version": 0.6,
 "global": {
  "const": {
   "AcquisitionMatrix": [
    100,
    0,
    0,
    100
   ],
   "AngioFlag": "N",
   "BitsAllocated": 16,
   "BitsStored": 12,
   "BodyPartExamined": "BRAIN",
   "Columns": 900,
   "EchoNumbers": 1,
   "EchoTime": 34.0,
   "EchoTrainLength": 100,
   "FlipAngle": 90.0,
   "HighBit": 11,
   "ImageOrientationPatient": [
    1.0,
    0.0,
    0.0,
    0.0,
    0.95931397909575,
    -0.282341441364
   ],
   "ImagePositionPatient": [
    -900.0,
    -884.79268021572,
    173.65865831154
   ],
   "ImageType": [
    "ORIGINAL",
    "PRIMARY",
    "M",
    "ND",
    "MOSAIC"
   ],
   "ImagedNucleus": "1H",
   "ImagingFrequency": 123.25779,
   "InPlanePhaseEncodingDirection": "COL",
   "MRAcquisitionType": "2D",
   "MagneticFieldStrength": 3.0,
   "Manufacturer": "SIEMENS",
   "ManufacturerModelName": "Prisma",
   "Modality": "MR",
   "NumberOfAverages": 1.0,
   "NumberOfPhaseEncodingSteps": 100,
   "PercentPhaseFieldOfView": 100.0,
   "PercentSampling": 100.0,
   "PerformedProcedureStepStartTime": "132301.583000",
   "PhotometricInterpretation": "MONOCHROME2",
   "PixelBandwidth": 2380.0,
   "PixelRepresentation": 0,
   "PixelSpacing": [
    2.0,
    2.0
   ],
   "ProtocolName": "bold_100x100_s3_2x2x2_static_256",
   "RepetitionTime": 2000.0,
   "Rows": 900,
   "SAR": 0.08580442230011,
   "SamplesPerPixel": 1,
   "ScanOptions": "FS",
   "ScanningSequence": "EP",
   "SequenceName": "*epfid2d1_100",
   "SequenceVariant": "SK",
   "SeriesDescription": "bold_100x100_s3_2x2x2_static_256",
   "SeriesNumber": 7,
   "SeriesTime": "140642.233000",
   "SliceLocation": -83.220462131106,
   "SliceThickness": 2.0,
   "SmallestImagePixelValue": 0,
   "SoftwareVersions": "syngo MR E11",
   "SpacingBetweenSlices": 1.9999999420059,
   "SpecificCharacterSet": "ISO_IR 100",
   "StudyID": "1",
   "StudyTime": "132301.505000",
   "TransmitCoilName": "Body",
   "VariableFlipAngleFlag": "N",
   "WindowCenterWidthExplanation": "Algo1",
   "dBdt": 0.0
  },
  "slices": {}
 },
 "time": {
  "samples": {
   "AcquisitionNumber": [
    1,
    2,
    3,
    4,
    5,
    6,
    7,
    8,
    9,
    10,
    11,
    12,
    13,
    14,
    15,
    16,
    17,
    18,
    19,
    20,
    21,
    22,
    23,
    24,
    25,
    26,
    27,
    28,
    29,
    30,
    31,
    32,
    33,
    34,
    35,
    36,
    37,
    38,
    39,
    40,
    41,
    42,
    43,
    44,
    45,
    46,
    47,
    48,
    49,
    50,
    51,
    52,
    53,
    54,
    55,
    56,
    57,
    58,
    59,
    60,
    61,
    62,
    63,
    64,
    65,
    66,
    67,
    68,
    69,
    70,
    71,
    72,
    73,
    74,
    75,
    76,
    77,
    78,
    79,
    80,
    81,
    82,
    83,
    84,
    85,
    86,
    87,
    88,
    89,
    90,
    91,
    92,
    93,
    94,
    95,
    96,
    97,
    98,
    99,
    100,
    101,
    102,
    103,
    104,
    105,
    106,
    107,
    108,
    109,
    110,
    111,
    112,
    113,
    114,
    115,
    116,
    117,
    118,
    119,
    120,
    121,
    122,
    123,
    124,
    125,
    126,
    127,
    128,
    129,
    130,
    131,
    132,
    133,
    134,
    135,
    136,
    137,
    138,
    139,
    140,
    141,
    142,
    143,
    144,
    145,
    146,
    147,
    148,
    149,
    150,
    151,
    152,
    153,
    154,
    155,
    156,
    157,
    158,
    159,
    160,
    161,
    162,
    163,
    164,
    165,
    166,
    167,
    168,
    169,
    170,
    171,
    172,
    173,
    174,
    175,
    176,
    177,
    178,
    179,
    180,
    181,
    182,
    183,
    184,
    185,
    186,
    187,
    188,
    189,
    190,
    191,
    192,
    193,
    194,
    195,
    196,
    197,
    198,
    199,
    200,
    201,
    202,
    203,
    204,
    205,
    206,
    207,
    208,
    209,
    210,
    211,
    212,
    213,
    214,
    215,
    216,
    217,
    218,
    219,
    220,
    221,
    222,
    223,
    224,
    225,
    226,
    227,
    228,
    229,
    230,
    231,
    232,
    233,
    234,
    235,
    236,
    237,
    238,
    239,
    240,
    241,
    242,
    243,
    244,
    245,
    246,
    247,
    248,
    249,
    250,
    251,
    252,
    253,
    254,
    255,
    256
   ],
   "AcquisitionTime": [
    "140639.120000",
    "140641.120000",
    "140643.120000",
    "140645.120000",
    "140647.120000",
    "140649.120000",
    "140651.120000",
    "140653.120000",
    "140655.120000",
    "140657.120000",
    "140659.120000",
    "140701.120000",
    "140703.120000",
    "140705.120000",
    "140707.120000",
    "140709.120000",
    "140711.120000",
    "140713.120000",
    "140715.120000",
    "140717.120000",
    "140719.120000",
    "140721.120000",
    "140723.120000",
    "140725.120000",
    "140727.120000",
    "140729.120000",
    "140731.120000",
    "140733.120000",
    "140735.120000",
    "140737.120000",
    "140739.120000",
    "140741.120000",
    "140743.120000",
    "140745.120000",
    "140747.120000",
    "140749.120000",
    "140751.120000",
    "140753.120000",
    "140755.120000",
    "140757.120000",
    "140759.120000",
    "140801.120000",
    "140803.120000",
    "140805.120000",
    "140807.120000",
    "140809.120000",
    "140811.120000",
    "140813.120000",
    "140815.120000",
    "140817.120000",
    "140819.120000",
    "140821.120000",
    "140823.120000",
    "140825.120000",
    "140827.120000",
    "140829.120000",
    "140831.120000",
    "140833.120000",
    "140835.120000",
    "140837.120000",
    "140839.120000",
    "140841.120000",
    "140843.120000",
    "140845.120000",
    "140847.120000",
    "140849.120000",
    "140851.120000",
    "140853.120000",
    "140855.120000",
    "140857.120000",
    "140859.120000",
    "140901.120000",
    "140903.120000",
    "140905.120000",
    "140907.120000",
    "140909.120000",
    "140911.120000",
    "140913.120000",
    "140915.120000",
    "140917.120000",
    "140919.120000",
    "140921.120000",
    "140923.120000",
    "140925.120000",
    "140927.120000",
    "140929.120000",
    "140931.120000",
    "140933.120000",
    "140935.120000",
    "140937.120000",
    "140939.120000",
    "140941.120000",
    "140943.120000",
    "140945.120000",
    "140947.120000",
    "140949.120000",
    "140951.120000",
    "140953.120000",
    "140955.120000",
    "140957.120000",
    "140959.120000",
    "141001.120000",
    "141003.120000",
    "141005.120000",
    "141007.120000",
    "141009.120000",
    "141011.120000",
    "141013.120000",
    "141015.120000",
    "141017.120000",
    "141019.120000",
    "141021.120000",
    "141023.120000",
    "141025.120000",
    "141027.120000",
    "141029.120000",
    "141031.120000",
    "141033.120000",
    "141035.120000",
    "141037.120000",
    "141039.120000",
    "141041.120000",
    "141043.120000",
    "141045.120000",
    "141047.120000",
    "141049.120000",
    "141051.120000",
    "141053.120000",
    "141055.120000",
    "141057.120000",
    "141059.120000",
    "141101.120000",
    "141103.120000",
    "141105.120000",
    "141107.120000",
    "141109.120000",
    "141111.120000",
    "141113.120000",
    "141115.120000",
    "141117.120000",
    "141119.120000",
    "141121.120000",
    "141123.120000",
    "141125.120000",
    "141127.120000",
    "141129.120000",
    "141131.120000",
    "141133.120000",
    "141135.120000",
    "141137.120000",
    "141139.120000",
    "141141.120000",
    "141143.120000",
    "141145.120000",
    "141147.120000",
    "141149.120000",
    "141151.120000",
    "141153.120000",
    "141155.120000",
    "141157.120000",
    "141159.120000",
    "141201.120000",
    "141203.120000",
    "141205.120000",
    "141207.120000",
    "141209.120000",
    "141211.120000",
    "141213.120000",
    "141215.120000",
    "141217.120000",
    "141219.120000",
    "141221.120000",
    "141223.120000",
    "141225.120000",
    "141227.120000",
    "141229.120000",
    "141231.120000",
    "141233.120000",
    "141235.120000",
    "141237.120000",
    "141239.120000",
    "141241.120000",
    "141243.120000",
    "141245.120000",
    "141247.120000",
    "141249.120000",
    "141251.120000",
    "141253.120000",
    "141255.120000",
    "141257.120000",
    "141259.120000",
    "141301.120000",
    "141303.120000",
    "141305.120000",
    "141307.120000",
    "141309.120000",
    "141311.120000",
    "141313.120000",
    "141315.120000",
    "141317.120000",
    "141319.120000",
    "141321.120000",
    "141323.120000",
    "141325.120000",
    "141327.120000",
    "141329.120000",
    "141331.120000",
    "141333.120000",
    "141335.120000",
    "141337.120000",
    "141339.120000",
    "141341.120000",
    "141343.120000",
    "141345.120000",
    "141347.120000",
    "141349.120000",
    "141351.120000",
    "141353.120000",
    "141355.120000",
    "141357.120000",
    "141359.120000",
    "141401.120000",
    "141403.120000",
    "141405.120000",
    "141407.120000",
    "141409.120000",
    "141411.120000",
    "141413.120000",
    "141415.120000",
    "141417.120000",
    "141419.120000",
    "141421.120000",
    "141423.120000",
    "141425.120000",
    "141427.120000",
    "141429.120000",
    "141431.120000",
    "141433.120000",
    "141435.120000",
    "141437.120000",
    "141439.120000",
    "141441.120000",
    "141443.120000",
    "141445.120000",
    "141447.120000",
    "141449.120000",
    "141451.120000",
    "141453.120000",
    "141455.120000",
    "141457.120000",
    "141459.120000",
    "141501.120000",
    "141503.120000",
    "141505.120000",
    "141507.120000",
    "141509.120000"
   ],
   "ContentTime": [
    "140642.237000",
    "140643.733000",
    "140645.731000",
    "140647.731000",
    "140649.732000",
    "140651.732000",
    "140653.731000",
    "140655.732000",
    "140657.733000",
    "140659.733000",
    "140701.732000",
    "140703.731000",
    "140705.731000",
    "140707.731000",
    "140709.732000",
    "140711.732000",
    "140713.732000",
    "140715.732000",
    "140717.732000",
    "140719.732000",
    "140721.731000",
    "140723.732000",
    "140725.732000",
    "140727.732000",
    "140729.732000",
    "140731.733000",
    "140733.732000",
    "140735.732000",
    "140737.732000",
    "140739.732000",
    "140741.731000",
    "140743.731000",
    "140745.731000",
    "140747.732000",
    "140749.733000",
    "140751.732000",
    "140753.732000",
    "140755.731000",
    "140757.732000",
    "140759.731000",
    "140801.732000",
    "140803.731000",
    "140805.731000",
    "140807.733000",
    "140809.732000",
    "140811.733000",
    "140813.732000",
    "140815.732000",
    "140817.732000",
    "140819.732000",
    "140821.731000",
    "140823.732000",
    "140825.732000",
    "140827.733000",
    "140829.732000",
    "140831.732000",
    "140833.731000",
    "140835.732000",
    "140837.732000",
    "140839.731000",
    "140841.733000",
    "140843.733000",
    "140845.733000",
    "140847.732000",
    "140849.732000",
    "140851.732000",
    "140853.731000",
    "140855.732000",
    "140857.731000",
    "140859.733000",
    "140901.733000",
    "140903.732000",
    "140905.731000",
    "140907.731000",
    "140909.732000",
    "140911.732000",
    "140913.731000",
    "140915.731000",
    "140917.733000",
    "140919.732000",
    "140921.733000",
    "140923.732000",
    "140925.732000",
    "140927.732000",
    "140929.732000",
    "140931.731000",
    "140933.731000",
    "140935.732000",
    "140937.732000",
    "140939.732000",
    "140941.731000",
    "140943.731000",
    "140945.732000",
    "140947.731000",
    "140949.731000",
    "140951.732000",
    "140953.733000",
    "140955.733000",
    "140957.732000",
    "140959.732000",
    "141001.732000",
    "141003.732000",
    "141005.731000",
    "141007.731000",
    "141009.732000",
    "141011.732000",
    "141013.733000",
    "141015.731000",
    "141017.732000",
    "141019.731000",
    "141021.731000",
    "141023.732000",
    "141025.732000",
    "141027.733000",
    "141029.732000",
    "141031.732000",
    "141033.732000",
    "141035.732000",
    "141037.732000",
    "141039.732000",
    "141041.732000",
    "141043.733000",
    "141045.732000",
    "141047.733000",
    "141049.731000",
    "141051.732000",
    "141053.732000",
    "141055.731000",
    "141057.732000",
    "141059.732000",
    "141101.732000",
    "141103.733000",
    "141105.733000",
    "141107.732000",
    "141109.732000",
    "141111.732000",
    "141113.732000",
    "141115.732000",
    "141117.732000",
    "141119.733000",
    "141121.733000",
    "141123.733000",
    "141125.732000",
    "141127.732000",
    "141129.732000",
    "141131.732000",
    "141133.731000",
    "141135.732000",
    "141137.732000",
    "141139.733000",
    "141141.732000",
    "141143.731000",
    "141145.731000",
    "141147.731000",
    "141149.732000",
    "141151.731000",
    "141153.732000",
    "141155.733000",
    "141157.733000",
    "141159.732000",
    "141201.732000",
    "141203.732000",
    "141205.731000",
    "141207.732000",
    "141209.732000",
    "141211.733000",
    "141213.733000",
    "141215.733000",
    "141217.732000",
    "141219.732000",
    "141221.732000",
    "141223.731000",
    "141225.732000",
    "141227.731000",
    "141229.732000",
    "141231.733000",
    "141233.732000",
    "141235.732000",
    "141237.731000",
    "141239.732000",
    "141241.732000",
    "141243.731000",
    "141245.731000",
    "141247.732000",
    "141249.732000",
    "141251.733000",
    "141253.731000",
    "141255.731000",
    "141257.732000",
    "141259.732000",
    "141301.731000",
    "141303.732000",
    "141305.732000",
    "141307.733000",
    "141309.732000",
    "141311.732000",
    "141313.732000",
    "141315.732000",
    "141317.732000",
    "141319.731000",
    "141321.732000",
    "141323.733000",
    "141325.733000",
    "141327.732000",
    "141329.731000",
    "141331.731000",
    "141333.732000",
    "141335.732000",
    "141337.732000",
    "141339.733000",
    "141341.733000",
    "141343.732000",
    "141345.732000",
    "141347.732000",
    "141349.732000",
    "141351.731000",
    "141353.732000",
    "141355.732000",
    "141357.733000",
    "141359.733000",
    "141401.732000",
    "141403.732000",
    "141405.731000",
    "141407.731000",
    "141409.732000",
    "141411.731000",
    "141413.733000",
    "141415.732000",
    "141417.733000",
    "141419.731000",
    "141421.732000",
    "141423.731000",
    "141425.732000",
    "141427.731000",
    "141429.731000",
    "141431.733000",
    "141433.732000",
    "141435.732000",
    "141437.732000",
    "141439.732000",
    "141441.732000",
    "141443.732000",
    "141445.732000",
    "141447.732000",
    "141449.733000",
    "141451.733000",
    "141453.732000",
    "141455.731000",
    "141457.732000",
    "141459.731000",
    "141501.731000",
    "141503.731000",
    "141505.731000",
    "141507.733000",
    "141509.733000",
    "141511.255000"
   ],
   "InstanceCreationTime": [
    "140642.237000",
    "140643.733000",
    "140645.731000",
    "140647.731000",
    "140649.732000",
    "140651.732000",
    "140653.731000",
    "140655.732000",
    "140657.733000",
    "140659.733000",
    "140701.732000",
    "140703.731000",
    "140705.731000",
    "140707.731000",
    "140709.732000",
    "140711.732000",
    "140713.732000",
    "140715.732000",
    "140717.732000",
    "140719.732000",
    "140721.731000",
    "140723.732000",
    "140725.732000",
    "140727.732000",
    "140729.732000",
    "140731.733000",
    "140733.732000",
    "140735.732000",
    "140737.732000",
    "140739.732000",
    "140741.731000",
    "140743.731000",
    "140745.731000",
    "140747.732000",
    "140749.733000",
    "140751.732000",
    "140753.732000",
    "140755.731000",
    "140757.732000",
    "140759.731000",
    "140801.732000",
    "140803.731000",
    "140805.731000",
    "140807.733000",
    "140809.732000",
    "140811.733000",
    "140813.732000",
    "140815.732000",
    "140817.732000",
    "140819.732000",
    "140821.731000",
    "140823.732000",
    "140825.732000",
    "140827.733000",
    "140829.732000",
    "140831.732000",
    "140833.731000",
    "140835.732000",
    "140837.732000",
    "140839.731000",
    "140841.733000",
    "140843.733000",
    "140845.733000",
    "140847.732000",
    "140849.732000",
    "140851.732000",
    "140853.731000",
    "140855.732000",
    "140857.731000",
    "140859.733000",
    "140901.733000",
    "140903.732000",
    "140905.731000",
    "140907.731000",
    "140909.732000",
    "140911.732000",
    "140913.731000",
    "140915.731000",
    "140917.733000",
    "140919.732000",
    "140921.733000",
    "140923.732000",
    "140925.732000",
    "140927.732000",
    "140929.732000",
    "140931.731000",
    "140933.731000",
    "140935.732000",
    "140937.732000",
    "140939.732000",
    "140941.731000",
    "140943.731000",
    "140945.732000",
    "140947.731000",
    "140949.731000",
    "140951.732000",
    "140953.733000",
    "140955.733000",
    "140957.732000",
    "140959.732000",
    "141001.732000",
    "141003.732000",
    "141005.731000",
    "141007.731000",
    "141009.732000",
    "141011.732000",
    "141013.733000",
    "141015.731000",
    "141017.732000",
    "141019.731000",
    "141021.731000",
    "141023.732000",
    "141025.732000",
    "141027.733000",
    "141029.732000",
    "141031.732000",
    "141033.732000",
    "141035.732000",
    "141037.732000",
    "141039.732000",
    "141041.732000",
    "141043.733000",
    "141045.732000",
    "141047.733000",
    "141049.731000",
    "141051.732000",
    "141053.732000",
    "141055.731000",
    "141057.732000",
    "141059.732000",
    "141101.732000",
    "141103.733000",
    "141105.733000",
    "141107.732000",
    "141109.732000",
    "141111.732000",
    "141113.732000",
    "141115.732000",
    "141117.732000",
    "141119.733000",
    "141121.733000",
    "141123.733000",
    "141125.732000",
    "141127.732000",
    "141129.732000",
    "141131.732000",
    "141133.731000",
    "141135.732000",
    "141137.732000",
    "141139.733000",
    "141141.732000",
    "141143.731000",
    "141145.731000",
    "141147.731000",
    "141149.732000",
    "141151.731000",
    "141153.732000",
    "141155.733000",
    "141157.733000",
    "141159.732000",
    "141201.732000",
    "141203.732000",
    "141205.731000",
    "141207.732000",
    "141209.732000",
    "141211.733000",
    "141213.733000",
    "141215.733000",
    "141217.732000",
    "141219.732000",
    "141221.732000",
    "141223.731000",
    "141225.732000",
    "141227.731000",
    "141229.732000",
    "141231.733000",
    "141233.732000",
    "141235.732000",
    "141237.731000",
    "141239.732000",
    "141241.732000",
    "141243.731000",
    "141245.731000",
    "141247.732000",
    "141249.732000",
    "141251.733000",
    "141253.731000",
    "141255.731000",
    "141257.732000",
    "141259.732000",
    "141301.731000",
    "141303.732000",
    "141305.732000",
    "141307.733000",
    "141309.732000",
    "141311.732000",
    "141313.732000",
    "141315.732000",
    "141317.732000",
    "141319.731000",
    "141321.732000",
    "141323.733000",
    "141325.733000",
    "141327.732000",
    "141329.731000",
    "141331.731000",
    "141333.732000",
    "141335.732000",
    "141337.732000",
    "141339.733000",
    "141341.733000",
    "141343.732000",
    "141345.732000",
    "141347.732000",
    "141349.732000",
    "141351.731000",
    "141353.732000",
    "141355.732000",
    "141357.733000",
    "141359.733000",
    "141401.732000",
    "141403.732000",
    "141405.731000",
    "141407.731000",
    "141409.732000",
    "141411.731000",
    "141413.733000",
    "141415.732000",
    "141417.733000",
    "141419.731000",
    "141421.732000",
    "141423.731000",
    "141425.732000",
    "141427.731000",
    "141429.731000",
    "141431.733000",
    "141433.732000",
    "141435.732000",
    "141437.732000",
    "141439.732000",
    "141441.732000",
    "141443.732000",
    "141445.732000",
    "141447.732000",
    "141449.733000",
    "141451.733000",
    "141453.732000",
    "141455.731000",
    "141457.732000",
    "141459.731000",
    "141501.731000",
    "141503.731000",
    "141505.731000",
    "141507.733000",
    "141509.733000",
    "141511.255000"
   ],
   "InstanceNumber": [
    1,
    2,
    3,
    4,
    5,
    6,
    7,
    8,
    9,
    10,
    11,
    12,
    13,
    14,
    15,
    16,
    17,
    18,
    19,
    20,
    21,
    22,
    23,
    24,
    25,
    26,
    27,
    28,
    29,
    30,
    31,
    32,
    33,
    34,
    35,
    36,
    37,
    38,
    39,
    40,
    41,
    42,
    43,
    44,
    45,
    46,
    47,
    48,
    49,
    50,
    51,
    52,
    53,
    54,
    55,
    56,
    57,
    58,
    59,
    60,
    61,
    62,
    63,
    64,
    65,
    66,
    67,
    68,
    69,
    70,
    71,
    72,
    73,
    74,
    75,
    76,
    77,
    78,
    79,
    80,
    81,
    82,
    83,
    84,
    85,
    86,
    87,
    88,
    89,
    90,
    91,
    92,
    93,
    94,
    95,
    96,
    97,
    98,
    99,
    100,
    101,
    102,
    103,
    104,
    105,
    106,
    107,
    108,
    109,
    110,
    111,
    112,
    113,
    114,
    115,
    116,
    117,
    118,
    119,
    120,
    121,
    122,
    123,
    124,
    125,
    126,
    127,
    128,
    129,
    130,
    131,
    132,
    133,
    134,
    135,
    136,
    137,
    138,
    139,
    140,
    141,
    142,
    143,
    144,
    145,
    146,
    147,
    148,
    149,
    150,
    151,
    152,
    153,
    154,
    155,
    156,
    157,
    158,
    159,
    160,
    161,
    162,
    163,
    164,
    165,
    166,
    167,
    168,
    169,
    170,
    171,
    172,
    173,
    174,
    175,
    176,
    177,
    178,
    179,
    180,
    181,
    182,
    183,
    184,
    185,
    186,
    187,
    188,
    189,
    190,
    191,
    192,
    193,
    194,
    195,
    196,
    197,
    198,
    199,
    200,
    201,
    202,
    203,
    204,
    205,
    206,
    207,
    208,
    209,
    210,
    211,
    212,
    213,
    214,
    215,
    216,
    217,
    218,
    219,
    220,
    221,
    222,
    223,
    224,
    225,
    226,
    227,
    228,
    229,
    230,
    231,
    232,
    233,
    234,
    235,
    236,
    237,
    238,
    239,
    240,
    241,
    242,
    243,
    244,
    245,
    246,
    247,
    248,
    249,
    250,
    251,
    252,
    253,
    254,
    255,
    256
   ],
   "LargestImagePixelValue": [
    3303,
    3243,
    3219,
    3229,
    3196,
    3188,
    3198,
    3200,
    3194,
    3228,
    3209,
    3175,
    3174,
    3182,
    3222,
    3170,
    3236,
    3187,
    3186,
    3184,
    3196,
    3165,
    3233,
    3178,
    3213,
    3187,
    3200,
    3204,
    3202,
    3193,
    3194,
    3199,
    3191,
    3194,
    3224,
    3211,
    3205,
    3197,
    3231,
    3176,
    3230,
    3190,
    3209,
    3175,
    3209,
    3184,
    3198,
    3224,
    3237,
    3190,
    3229,
    3195,
    3218,
    3187,
    3173,
    3203,
    3197,
    3192,
    3201,
    3186,
    3212,
    3234,
    3207,
    3223,
    3195,
    3235,
    3189,
    3212,
    3196,
    3210,
    3198,
    3178,
    3206,
    3194,
    3200,
    3221,
    3211,
    3198,
    3194,
    3212,
    3203,
    3212,
    3221,
    3188,
    3210,
    3231,
    3224,
    3206,
    3191,
    3190,
    3156,
    3212,
    3172,
    3157,
    3154,
    3179,
    3210,
    3209,
    3239,
    3236,
    3239,
    3232,
    3226,
    3231,
    3213,
    3243,
    3199,
    3191,
    3204,
    3187,
    3190,
    3178,
    3198,
    3228,
    3220,
    3209,
    3191,
    3222,
    3204,
    3183,
    3207,
    3214,
    3209,
    3204,
    3221,
    3213,
    3198,
    3226,
    3207,
    3176,
    3216,
    3135,
    3194,
    3177,
    3160,
    3164,
    3164,
    3224,
    3206,
    3171,
    3174,
    3179,
    3198,
    3145,
    3185,
    3172,
    3224,
    3175,
    3241,
    3192,
    3237,
    3199,
    3221,
    3161,
    3088,
    3117,
    3197,
    3137,
    3108,
    3144,
    3109,
    3150,
    3111,
    3116,
    3101,
    3073,
    3143,
    3122,
    3041,
    3044,
    3044,
    3068,
    3016,
    3011,
    2994,
    3032,
    3013,
    3039,
    3036,
    3035,
    3037,
    3030,
    3007,
    2963,
    2982,
    2990,
    3003,
    3054,
    3002,
    3006,
    2954,
    2984,
    2973,
    2965,
    2996,
    2982,
    2925,
    2975,
    2989,
    2987,
    2982,
    2992,
    2981,
    2969,
    2978,
    2987,
    3033,
    3030,
    3016,
    2984,
    2963,
    2982,
    3022,
    3021,
    3015,
    2994,
    2968,
    3051,
    2902,
    2965,
    2953,
    2964,
    3006,
    2958,
    2972,
    2975,
    2979,
    2975,
    2957,
    3008,
    2999,
    2993,
    2945,
    3026,
    2998,
    3005,
    3005,
    3014,
    3019,
    3038,
    3018,
    3000,
    3026,
    2990,
    3002,
    3034,
    2961,
    3059,
    2918,
    3056,
    2956,
    3031,
    2975,
    3050,
    2968,
    3052
   ],
   "WindowCenter": [
    826.0,
    824.0,
    825.0,
    827.0,
    828.0,
    827.0,
    824.0,
    824.0,
    825.0,
    826.0,
    827.0,
    828.0,
    827.0,
    826.0,
    826.0,
    826.0,
    827.0,
    827.0,
    827.0,
    826.0,
    826.0,
    825.0,
    825.0,
    826.0,
    828.0,
    828.0,
    827.0,
    827.0,
    827.0,
    826.0,
    827.0,
    826.0,
    826.0,
    825.0,
    824.0,
    825.0,
    826.0,
    827.0,
    827.0,
    827.0,
    827.0,
    826.0,
    826.0,
    826.0,
    825.0,
    825.0,
    825.0,
    825.0,
    825.0,
    825.0,
    825.0,
    825.0,
    825.0,
    825.0,
    826.0,
    825.0,
    824.0,
    823.0,
    824.0,
    826.0,
    827.0,
    825.0,
    825.0,
    825.0,
    826.0,
    826.0,
    824.0,
    824.0,
    823.0,
    825.0,
    825.0,
    824.0,
    823.0,
    824.0,
    824.0,
    824.0,
    825.0,
    825.0,
    825.0,
    825.0,
    825.0,
    826.0,
    825.0,
    824.0,
    825.0,
    825.0,
    824.0,
    824.0,
    824.0,
    824.0,
    823.0,
    824.0,
    823.0,
    823.0,
    823.0,
    823.0,
    825.0,
    826.0,
    826.0,
    825.0,
    824.0,
    826.0,
    826.0,
    826.0,
    825.0,
    824.0,
    824.0,
    826.0,
    826.0,
    825.0,
    825.0,
    825.0,
    824.0,
    824.0,
    826.0,
    826.0,
    825.0,
    824.0,
    823.0,
    824.0,
    826.0,
    825.0,
    823.0,
    823.0,
    825.0,
    826.0,
    826.0,
