{
  "AcquisitionMatrixPE": 100,
  "AcquisitionNumber": 1,
  "AcquisitionTime": "14:29:9.732500",
  "BandwidthPerPixelPhaseEncode": 18.519,
  "BaseResolution": 100,
  "BodyPartExamined": "BRAIN",
  "ConsistencyInfo": "N4_VE11C_LATEST_20160120",
  "ConversionSoftware": "dcm2niix",
  "ConversionSoftwareVersion": "v1.0.20180622 GCC4.9.2",
  "DerivedVendorReportedEchoSpacing": 0.000539986,
  "DeviceSerialNumber": "166078",
  "DwellTime": 2.1e-06,
  "EchoTime": 0.034,
  "EchoTrainLength": 100,
  "EffectiveEchoSpacing": 0.000539986,
  "FlipAngle": 90,
  "ImageOrientationPatientDICOM": [1, 0, 0, 0, 0.959314, -0.282341],
  "ImageType": [
    "ORIGINAL",
    "PRIMARY",
    "M",
    "ND",
    "MOSAIC"
],
  "InPlanePhaseEncodingDirectionDICOM": "COL",
  "InstitutionAddress": "Street_StreetNo_Bei_Jing_District_CN_ZIP",
  "InstitutionName": "BeiJing_Normal_University",
  "InstitutionalDepartmentName": "Department",
  "MRAcquisitionType": "2D",
  "MagneticFieldStrength": 3,
  "Manufacturer": "Siemens",
  "ManufacturersModelName": "Prisma",
  "Modality": "MR",
  "MultibandAccelerationFactor": 3,
  "PartialFourier": 1,
  "PatientPosition": "HFS",
  "PercentPhaseFOV": 100,
  "PhaseEncodingDirection": "j-",
  "PhaseEncodingSteps": 100,
  "PhaseResolution": 1,
  "PixelBandwidth": 2380,
  "ProcedureStepDescription": "BNU_P2018_64CH_Zhen.ZongLei",
  "ProtocolName": "bold_100x100_s3_2x2x2_static_256",
  "PulseSequenceDetails": "%SiemensSeq%_ep2d_bold",
  "ReceiveCoilActiveElements": "HC1-7;NC1",
  "ReceiveCoilName": "HeadNeck_64",
  "ReconMatrixPE": 100,
  "RepetitionTime": 2,
  "SAR": 0.0858044,
  "ScanOptions": "FS",
  "ScanningSequence": "EP",
  "SequenceName": "_epfid2d1_100",
  "SequenceVariant": "SK",
  "SeriesDescription": "bold_100x100_s3_2x2x2_static_256",
  "SeriesNumber": 11,
  "ShimSetting": [-5458, -11481, -1288, 427, 2, -166, -130, 77],
  "SliceThickness": 2,
  "SliceTiming": [1.485, 0, 0.99, 0.0825, 1.0725, 0.165, 1.155, 0.2475, 1.2375, 0.33, 1.32, 0.4125, 1.4025, 0.5775, 1.5675, 0.66, 1.65, 0.7425, 1.7325, 0.825, 1.815, 0.9075, 1.8975, 0.495, 1.485, 0, 0.99, 0.0825, 1.0725, 0.165, 1.155, 0.2475, 1.2375, 0.33, 1.32, 0.4125, 1.4025, 0.5775, 1.5675, 0.66, 1.65, 0.7425, 1.7325, 0.825, 1.815, 0.9075, 1.8975, 0.495, 1.485, 0, 0.99, 0.0825, 1.0725, 0.165, 1.155, 0.2475, 1.2375, 0.33, 1.32, 0.4125, 1.4025, 0.5775, 1.5675, 0.66, 1.65, 0.7425, 1.7325, 0.825, 1.815, 0.9075, 1.8975, 0.495],
  "SoftwareVersions": "syngo_MR_E11",
  "SpacingBetweenSlices": 2,
  "StationName": "AWP166078",
  "TaskName": "naturalvision",
  "TotalReadoutTime": 0.0534586,
  "TxRefAmp": 233.016,
  "dcmmeta_affine": [
    [-2.0, 0.0, 0.0, 100.0],
    [0.0, 1.9186279773712158, -0.5646828413009644, -72.60266876220703],
    [0.0, 0.5646829009056091, 1.9186278581619263, -108.11810302734375],
    [0.0, 0.0, 0.0, 1.0]
],
  "dcmmeta_reorient_transform": [
    [0.0, -1.0, 0.0, 99.0],
    [1.0, 0.0, 0.0, 0.0],
    [0.0, 0.0, 1.0, 0.0],
    [0.0, 0.0, 0.0, 1.0]
],
  "dcmmeta_shape": [100, 100, 72, 256],
  "dcmmeta_slice_dim": 2,
  "dcmmeta_version": 0.6,
  "global": {
    "const": {
      "AcquisitionMatrix": [100, 0, 0, 100],
      "AngioFlag": "N",
      "BitsAllocated": 16,
      "BitsStored": 12,
      "BodyPartExamined": "BRAIN",
      "Columns": 900,
      "EchoNumbers": 1,
      "EchoTime": 34.0,
      "EchoTrainLength": 100,
      "FlipAngle": 90.0,
      "HighBit": 11,
      "ImageOrientationPatient": [1.0, 0.0, 0.0, 0.0, 0.95931397909575, -0.282341441364],
      "ImagePositionPatient": [-900.0, -884.79268021572, 173.65865831154],
      "ImageType": [
        "ORIGINAL",
        "PRIMARY",
        "M",
        "ND",
        "MOSAIC"
],
      "ImagedNucleus": "1H",
      "ImagingFrequency": 123.257792,
      "InPlanePhaseEncodingDirection": "COL",
      "MRAcquisitionType": "2D",
      "MagneticFieldStrength": 3.0,
      "Manufacturer": "SIEMENS",
      "ManufacturerModelName": "Prisma",
      "Modality": "MR",
      "NumberOfAverages": 1.0,
      "NumberOfPhaseEncodingSteps": 100,
      "PercentPhaseFieldOfView": 100.0,
      "PercentSampling": 100.0,
      "PerformedProcedureStepStartTime": "132301.583000",
      "PhotometricInterpretation": "MONOCHROME2",
      "PixelBandwidth": 2380.0,
      "PixelRepresentation": 0,
      "PixelSpacing": [2.0, 2.0],
      "ProtocolName": "bold_100x100_s3_2x2x2_static_256",
      "RepetitionTime": 2000.0,
      "Rows": 900,
      "SAR": 0.08580442230011,
      "SamplesPerPixel": 1,
      "ScanOptions": "FS",
      "ScanningSequence": "EP",
      "SequenceName": "*epfid2d1_100",
      "SequenceVariant": "SK",
      "SeriesDescription": "bold_100x100_s3_2x2x2_static_256",
      "SeriesNumber": 11,
      "SeriesTime": "142911.831000",
      "SliceLocation": -83.220462131106,
      "SliceThickness": 2.0,
      "SmallestImagePixelValue": 0,
      "SoftwareVersions": "syngo MR E11",
      "SpacingBetweenSlices": 1.9999999420059,
      "SpecificCharacterSet": "ISO_IR 100",
      "StudyID": "1",
      "StudyTime": "132301.505000",
      "TransmitCoilName": "Body",
      "VariableFlipAngleFlag": "N",
      "WindowCenterWidthExplanation": "Algo1",
      "dBdt": 0.0},
    "slices": {}
  },
  "time": {
    "samples": {
      "AcquisitionNumber": [1, 2, 3, 4, 5, 6, 7, 8, 9, 10, 11, 12, 13, 14, 15, 16, 17, 18, 19, 20, 21, 22, 23, 24, 25, 26, 27, 28, 29, 30, 31, 32, 33, 34, 35, 36, 37, 38, 39, 40, 41, 42, 43, 44, 45, 46, 47, 48, 49, 50, 51, 52, 53, 54, 55, 56, 57, 58, 59, 60, 61, 62, 63, 64, 65, 66, 67, 68, 69, 70, 71, 72, 73, 74, 75, 76, 77, 78, 79, 80, 81, 82, 83, 84, 85, 86, 87, 88, 89, 90, 91, 92, 93, 94, 95, 96, 97, 98, 99, 100, 101, 102, 103, 104, 105, 106, 107, 108, 109, 110, 111, 112, 113, 114, 115, 116, 117, 118, 119, 120, 121, 122, 123, 124, 125, 126, 127, 128, 129, 130, 131, 132, 133, 134, 135, 136, 137, 138, 139, 140, 141, 142, 143, 144, 145, 146, 147, 148, 149, 150, 151, 152, 153, 154, 155, 156, 157, 158, 159, 160, 161, 162, 163, 164, 165, 166, 167, 168, 169, 170, 171, 172, 173, 174, 175, 176, 177, 178, 179, 180, 181, 182, 183, 184, 185, 186, 187, 188, 189, 190, 191, 192, 193, 194, 195, 196, 197, 198, 199, 200, 201, 202, 203, 204, 205, 206, 207, 208, 209, 210, 211, 212, 213, 214, 215, 216, 217, 218, 219, 220, 221, 222, 223, 224, 225, 226, 227, 228, 229, 230, 231, 232, 233, 234, 235, 236, 237, 238, 239, 240, 241, 242, 243, 244, 245, 246, 247, 248, 249, 250, 251, 252, 253, 254, 255, 256],
      "AcquisitionTime": ["142909.732500", "142911.732500", "142913.732500", "142915.732500", "142917.732500", "142919.732500", "142921.732500", "142923.732500", "142925.732500", "142927.732500", "142929.732500", "142931.732500", "142933.732500", "142935.732500", "142937.732500", "142939.732500", "142941.732500", "142943.732500", "142945.732500", "142947.732500", "142949.732500", "142951.732500", "142953.732500", "142955.732500", "142957.732500", "142959.732500", "143001.732500", "143003.732500", "143005.732500", "143007.732500", "143009.732500", "143011.732500", "143013.732500", "143015.732500", "143017.732500", "143019.732500", "143021.732500", "143023.732500", "143025.732500", "143027.732500", "143029.732500", "143031.732500", "143033.732500", "143035.732500", "143037.732500", "143039.732500", "143041.732500", "143043.732500", "143045.732500", "143047.732500", "143049.732500", "143051.732500", "143053.732500", "143055.732500", "143057.732500", "143059.732500", "143101.732500", "143103.732500", "143105.732500", "143107.732500", "143109.732500", "143111.732500", "143113.732500", "143115.732500", "143117.732500", "143119.732500", "143121.732500", "143123.732500", "143125.732500", "143127.732500", "143129.732500", "143131.732500", "143133.732500", "143135.732500", "143137.732500", "143139.732500", "143141.732500", "143143.732500", "143145.732500", "143147.732500", "143149.732500", "143151.732500", "143153.732500", "143155.732500", "143157.732500", "143159.732500", "143201.732500", "143203.732500", "143205.732500", "143207.732500", "143209.732500", "143211.732500", "143213.732500", "143215.732500", "143217.732500", "143219.732500", "143221.732500", "143223.732500", "143225.732500", "143227.732500", "143229.732500", "143231.732500", "143233.732500", "143235.732500", "143237.732500", "143239.732500", "143241.732500", "143243.732500", "143245.732500", "143247.732500", "143249.732500", "143251.732500", "143253.732500", "143255.732500", "143257.732500", "143259.732500", "143301.732500", "143303.732500", "143305.732500", "143307.732500", "143309.732500", "143311.732500", "143313.732500", "143315.732500", "143317.732500", "143319.732500", "143321.732500", "143323.732500", "143325.732500", "143327.732500", "143329.732500", "143331.732500", "143333.732500", "143335.732500", "143337.732500", "143339.732500", "143341.732500", "143343.732500", "143345.732500", "143347.732500", "143349.732500", "143351.732500", "143353.732500", "143355.732500", "143357.732500", "143359.732500", "143401.732500", "143403.732500", "143405.732500", "143407.732500", "143409.732500", "143411.732500", "143413.732500", "143415.732500", "143417.732500", "143419.732500", "143421.732500", "143423.732500", "143425.732500", "143427.732500", "143429.732500", "143431.732500", "143433.732500", "143435.732500", "143437.732500", "143439.732500", "143441.732500", "143443.732500", "143445.732500", "143447.732500", "143449.732500", "143451.732500", "143453.732500", "143455.732500", "143457.732500", "143459.732500", "143501.732500", "143503.732500", "143505.732500", "143507.732500", "143509.732500", "143511.732500", "143513.732500", "143515.732500", "143517.732500", "143519.732500", "143521.732500", "143523.732500", "143525.732500", "143527.732500", "143529.732500", "143531.732500", "143533.732500", "143535.732500", "143537.732500", "143539.732500", "143541.732500", "143543.732500", "143545.732500", "143547.732500", "143549.732500", "143551.732500", "143553.732500", "143555.732500", "143557.732500", "143559.732500", "143601.732500", "143603.732500", "143605.732500", "143607.732500", "143609.732500", "143611.732500", "143613.732500", "143615.732500", "143617.732500", "143619.732500", "143621.732500", "143623.732500", "143625.732500", "143627.732500", "143629.732500", "143631.732500", "143633.732500", "143635.732500", "143637.732500", "143639.732500", "143641.732500", "143643.732500", "143645.732500", "143647.732500", "143649.732500", "143651.732500", "143653.732500", "143655.732500", "143657.732500", "143659.732500", "143701.732500", "143703.732500", "143705.732500", "143707.732500", "143709.732500", "143711.732500", "143713.732500", "143715.732500", "143717.732500", "143719.732500", "143721.732500", "143723.732500", "143725.732500", "143727.732500", "143729.732500", "143731.732500", "143733.732500", "143735.732500", "143737.732500", "143739.732500"],
      "ContentTime": ["142911.835000", "142913.330000", "142915.331000", "142917.329000", "142919.329000", "142921.330000", "142923.331000", "142925.330000", "142927.331000", "142929.330000", "142931.330000", "142933.331000", "142935.330000", "142937.330000", "142939.329000", "142941.330000", "142943.330000", "142945.331000", "142947.330000", "142949.330000", "142951.330000", "142953.329000", "142955.329000", "142957.329000", "142959.330000", "143001.331000", "143003.330000", "143005.330000", "143007.330000", "143009.330000", "143011.329000", "143013.330000", "143015.331000", "143017.330000", "143019.331000", "143021.330000", "143023.330000", "143025.330000", "143027.330000", "143029.329000", "143031.330000", "143033.331000", "143035.331000", "143037.330000", "143039.331000", "143041.330000", "143043.330000", "143045.330000", "143047.330000", "143049.330000", "143051.330000", "143053.331000", "143055.331000", "143057.330000", "143059.331000", "143101.331000", "143103.329000", "143105.329000", "143107.330000", "143109.331000", "143111.331000", "143113.331000", "143115.330000", "143117.330000", "143119.330000", "143121.330000", "143123.330000", "143125.330000", "143127.331000", "143129.330000", "143131.331000", "143133.331000", "143135.331000", "143137.329000", "143139.330000", "143141.330000", "143143.331000", "143145.330000", "143147.330000", "143149.331000", "143151.331000", "143153.330000", "143155.329000", "143157.330000", "143159.330000", "143201.331000", "143203.330000", "143205.330000", "143207.330000", "143209.331000", "143211.331000", "143213.329000", "143215.329000", "143217.329000", "143219.330000", "143221.331000", "143223.331000", "143225.331000", "143227.331000", "143229.331000", "143231.330000", "143233.329000", "143235.330000", "143237.330000", "143239.330000", "143241.331000", "143243.331000", "143245.331000", "143247.329000", "143249.329000", "143251.329000", "143253.330000", "143255.330000", "143257.330000", "143259.330000", "143301.330000", "143303.330000", "143305.330000", "143307.330000", "143309.329000", "143311.330000", "143313.330000", "143315.330000", "143317.331000", "143319.331000", "143321.331000", "143323.329000", "143325.330000", "143327.330000", "143329.330000", "143331.331000", "143333.331000", "143335.330000", "143337.330000", "143339.331000", "143341.330000", "143343.329000", "143345.331000", "143347.330000", "143349.331000", "143351.330000", "143353.331000", "143355.331000", "143357.341000", "143359.330000", "143401.329000", "143403.330000", "143405.331000", "143407.331000", "143409.331000", "143411.331000", "143413.330000", "143415.330000", "143417.329000", "143419.330000", "143421.331000", "143423.330000", "143425.330000", "143427.330000", "143429.330000", "143431.331000", "143433.330000", "143435.329000", "143437.329000", "143439.331000", "143441.331000", "143443.330000", "143445.331000", "143447.331000", "143449.331000", "143451.330000", "143453.329000", "143455.331000", "143457.331000", "143459.330000", "143501.330000", "143503.331000", "143505.331000", "143507.329000", "143509.330000", "143511.330000", "143513.331000", "143515.330000", "143517.331000", "143519.330000", "143521.330000", "143523.330000", "143525.329000", "143527.329000", "143529.329000", "143531.330000", "143533.350000", "143535.330000", "143537.330000", "143539.330000", "143541.330000", "143543.330000", "143545.330000", "143547.331000", "143549.331000", "143551.330000", "143553.331000", "143555.330000", "143557.331000", "143559.331000", "143601.330000", "143603.330000", "143605.331000", "143607.331000", "143609.331000", "143611.331000", "143613.330000", "143615.331000", "143617.330000", "143619.329000", "143621.329000", "143623.331000", "143625.331000", "143627.331000", "143629.331000", "143631.331000", "143633.330000", "143635.330000", "143637.329000", "143639.330000", "143641.330000", "143643.330000", "143645.330000", "143647.331000", "143649.331000", "143651.330000", "143653.330000", "143655.330000", "143657.331000", "143659.330000", "143701.330000", "143703.331000", "143705.331000", "143707.331000", "143709.330000", "143711.330000", "143713.330000", "143715.331000", "143717.330000", "143719.331000", "143721.331000", "143723.330000", "143725.331000", "143727.330000", "143729.330000", "143731.330000", "143733.331000", "143735.331000", "143737.331000", "143739.331000", "143740.998000"],
      "InstanceCreationTime": ["142911.835000", "142913.330000", "142915.331000", "142917.329000", "142919.329000", "142921.330000", "142923.331000", "142925.330000", "142927.331000", "142929.330000", "142931.330000", "142933.331000", "142935.330000", "142937.330000", "142939.329000", "142941.330000", "142943.330000", "142945.331000", "142947.330000", "142949.330000", "142951.330000", "142953.329000", "142955.329000", "142957.329000", "142959.330000", "143001.331000", "143003.330000", "143005.330000", "143007.330000", "143009.330000", "143011.329000", "143013.330000", "143015.331000", "143017.330000", "143019.331000", "143021.330000", "143023.330000", "143025.330000", "143027.330000", "143029.329000", "143031.330000", "143033.331000", "143035.331000", "143037.330000", "143039.331000", "143041.330000", "143043.330000", "143045.330000", "143047.330000", "143049.330000", "143051.330000", "143053.331000", "143055.331000", "143057.330000", "143059.331000", "143101.331000", "143103.329000", "143105.329000", "143107.330000", "143109.331000", "143111.331000", "143113.331000", "143115.330000", "143117.330000", "143119.330000", "143121.330000", "143123.330000", "143125.330000", "143127.331000", "143129.330000", "143131.331000", "143133.331000", "143135.331000", "143137.329000", "143139.330000", "143141.330000", "143143.331000", "143145.330000", "143147.330000", "143149.331000", "143151.331000", "143153.330000", "143155.329000", "143157.330000", "143159.330000", "143201.331000", "143203.330000", "143205.330000", "143207.330000", "143209.331000", "143211.331000", "143213.329000", "143215.329000", "143217.329000", "143219.330000", "143221.331000", "143223.331000", "143225.331000", "143227.331000", "143229.331000", "143231.330000", "143233.329000", "143235.330000", "143237.330000", "143239.330000", "143241.331000", "143243.331000", "143245.331000", "143247.329000", "143249.329000", "143251.329000", "143253.330000", "143255.330000", "143257.330000", "143259.330000", "143301.330000", "143303.330000", "143305.330000", "143307.330000", "143309.329000", "143311.330000", "143313.330000", "143315.330000", "143317.331000", "143319.331000", "143321.331000", "143323.329000", "143325.330000", "143327.330000", "143329.330000", "143331.331000", "143333.331000", "143335.330000", "143337.330000", "143339.331000", "143341.330000", "143343.329000", "143345.331000", "143347.330000", "143349.331000", "143351.330000", "143353.331000", "143355.331000", "143357.341000", "143359.330000", "143401.329000", "143403.330000", "143405.331000", "143407.331000", "143409.331000", "143411.331000", "143413.330000", "143415.330000", "143417.329000", "143419.330000", "143421.331000", "143423.330000", "143425.330000", "143427.330000", "143429.330000", "143431.331000", "143433.330000", "143435.329000", "143437.329000", "143439.331000", "143441.331000", "143443.330000", "143445.331000", "143447.331000", "143449.331000", "143451.330000", "143453.329000", "143455.331000", "143457.331000", "143459.330000", "143501.330000", "143503.331000", "143505.331000", "143507.329000", "143509.330000", "143511.330000", "143513.331000", "143515.330000", "143517.331000", "143519.330000", "143521.330000", "143523.330000", "143525.329000", "143527.329000", "143529.329000", "143531.330000", "143533.350000", "143535.330000", "143537.330000", "143539.330000", "143541.330000", "143543.330000", "143545.330000", "143547.331000", "143549.331000", "143551.330000", "143553.331000", "143555.330000", "143557.331000", "143559.331000", "143601.330000", "143603.330000", "143605.331000", "143607.331000", "143609.331000", "143611.331000", "143613.330000", "143615.331000", "143617.330000", "143619.329000", "143621.329000", "143623.331000", "143625.331000", "143627.331000", "143629.331000", "143631.331000", "143633.330000", "143635.330000", "143637.329000", "143639.330000", "143641.330000", "143643.330000", "143645.330000", "143647.331000", "143649.331000", "143651.330000", "143653.330000", "143655.330000", "143657.331000", "143659.330000", "143701.330000", "143703.331000", "143705.331000", "143707.331000", "143709.330000", "143711.330000", "143713.330000", "143715.331000", "143717.330000", "143719.331000", "143721.331000", "143723.330000", "143725.331000", "143727.330000", "143729.330000", "143731.330000", "143733.331000", "143735.331000", "143737.331000", "143739.331000", "143740.998000"],
      "InstanceNumber": [1, 2, 3, 4, 5, 6, 7, 8, 9, 10, 11, 12, 13, 14, 15, 16, 17, 18, 19, 20, 21, 22, 23, 24, 25, 26, 27, 28, 29, 30, 31, 32, 33, 34, 35, 36, 37, 38, 39, 40, 41, 42, 43, 44, 45, 46, 47, 48, 49, 50, 51, 52, 53, 54, 55, 56, 57, 58, 59, 60, 61, 62, 63, 64, 65, 66, 67, 68, 69, 70, 71, 72, 73, 74, 75, 76, 77, 78, 79, 80, 81, 82, 83, 84, 85, 86, 87, 88, 89, 90, 91, 92, 93, 94, 95, 96, 97, 98, 99, 100, 101, 102, 103, 104, 105, 106, 107, 108, 109, 110, 111, 112, 113, 114, 115, 116, 117, 118, 119, 120, 121, 122, 123, 124, 125, 126, 127, 128, 129, 130, 131, 132, 133, 134, 135, 136, 137, 138, 139, 140, 141, 142, 143, 144, 145, 146, 147, 148, 149, 150, 151, 152, 153, 154, 155, 156, 157, 158, 159, 160, 161, 162, 163, 164, 165, 166, 167, 168, 169, 170, 171, 172, 173, 174, 175, 176, 177, 178, 179, 180, 181, 182, 183, 184, 185, 186, 187, 188, 189, 190, 191, 192, 193, 194, 195, 196, 197, 198, 199, 200, 201, 202, 203, 204, 205, 206, 207, 208, 209, 210, 211, 212, 213, 214, 215, 216, 217, 218, 219, 220, 221, 222, 223, 224, 225, 226, 227, 228, 229, 230, 231, 232, 233, 234, 235, 236, 237, 238, 239, 240, 241, 242, 243, 244, 245, 246, 247, 248, 249, 250, 251, 252, 253, 254, 255, 256],
      "LargestImagePixelValue": [3033, 3036, 2978, 2991, 3006, 2989, 3002, 3010, 3016, 3017, 2997, 3010, 2981, 3002, 3006, 2978, 2982, 3003, 3005, 3013, 2983, 2980, 2996, 3005, 2999, 2964, 2958, 2982, 2961, 2974, 2965, 2941, 2963, 2966, 2986, 2962, 2991, 2944, 2919, 2966, 2945, 2936, 2969, 2966, 2968, 2917, 2957, 2953, 2945, 2953, 2930, 2947, 2940, 2927, 2939, 2946, 2937, 2947, 2931, 2970, 2938, 2948, 2963, 2958, 2913, 2933, 2911, 2920, 2922, 2924, 2898, 2913, 2907, 2916, 2925, 2934, 2910, 2906, 2963, 2932, 2923, 2918, 3082, 2882, 2884, 2908, 2853, 2904, 2890, 2925, 2944, 2951, 2923, 2890, 2859, 2876, 2965, 2869, 2865, 2842, 2845, 2849, 2864, 2838, 2866, 2827, 2846, 2846, 2860, 2834, 2848, 2857, 2834, 2857, 2852, 2851, 2843, 2874, 2848, 2844, 2837, 2857, 2830, 2831, 2841, 2820, 2834, 2847, 2975, 2819, 2944, 2886, 2923, 2880, 2872, 2898, 2892, 2928, 2874, 2911, 2882, 2897, 2867, 2911, 2884, 2892, 2878, 2876, 2867, 2861, 2864, 2867, 2849, 2869, 2870, 2855, 2859, 2877, 2853, 2899, 2867, 2862, 2846, 2849, 2849, 2843, 2864, 2848, 2846, 2833, 2833, 2833, 2821, 2819, 2829, 2822, 2848, 2819, 2814, 2824, 2860, 2813, 2802, 2820, 3155, 2828, 3143, 2898, 2831, 2863, 2837, 2820, 2831, 2803, 2806, 2806, 2800, 2811, 2802, 3126, 2802, 2800, 2826, 2829, 2831, 2854, 2822, 2847, 2881, 2851, 2853, 2853, 2861, 2846, 2852, 2872, 2851, 2847, 2858, 2832, 2852, 2808, 2835, 2842, 2858, 2864, 2838, 2856, 2885, 2839, 2821, 2809, 2806, 2830, 2828, 2838, 2830, 2816, 2811, 2813, 2837, 2806, 2824, 2822, 2824, 2820, 2821, 2813, 2821, 2805, 2799, 2819, 2814, 2809, 2833, 2808],
      "WindowCenter": [818.0, 817.0, 819.0, 818.0, 817.0, 816.0, 817.0, 818.0, 819.0, 819.0, 818.0, 818.0, 818.0, 819.0, 818.0, 817.0, 817.0, 818.0, 819.0, 818.0, 817.0, 817.0, 818.0, 818.0, 817.0, 817.0, 816.0, 818.0, 820.0, 819.0, 818.0, 817.0, 817.0, 817.0, 818.0, 818.0, 819.0, 820.0, 819.0, 818.0, 817.0, 819.0, 820.0, 820.0, 818.0, 816.0, 817.0, 818.0, 818.0, 818.0, 817.0, 818.0, 818.0, 818.0, 818.0, 818.0, 818.0, 818.0, 819.0, 819.0, 819.0, 818.0, 818.0, 819.0, 818.0, 818.0, 817.0, 819.0, 819.0, 818.0, 817.0, 818.0, 818.0, 817.0, 817.0, 818.0, 818.0, 818.0, 819.0, 819.0, 819.0, 819.0, 820.0, 819.0, 819.0, 818.0, 817.0, 817.0, 818.0, 819.0, 820.0, 820.0, 817.0, 816.0, 816.0, 817.0, 818.0, 816.0, 815.0, 816.0, 816.0, 815.0, 816.0, 817.0, 818.0, 816.0, 816.0, 816.0, 817.0, 817.0, 818.0, 818.0, 817.0, 818.0, 818.0, 817.0, 816.0, 817.0, 817.0, 817.0, 817.0, 816.0, 815.0, 816.0, 817.0, 817.0, 816.0, 815.0, 816.0, 815.0, 816.0, 817.0, 817.0, 815.0, 815.0, 817.0, 818.0, 819.0, 817.0, 817.0, 816.0, 817.0, 818.0, 818.0, 817.0, 817.0, 817.0, 817.0, 818.0, 817.0, 817.0, 816.0, 815.0, 815.0, 817.0, 817.0, 817.0, 817.0, 818.0, 818.0, 817.0, 817.0, 816.0, 815.0, 816.0, 817.0, 819.0, 818.0, 818.0, 818.0, 816.0, 815.0, 815.0, 815.0, 816.0, 815.0, 814.0, 814.0, 815.0, 816.0, 816.0, 816.0, 816.0, 815.0, 817.0, 815.0, 818.0, 818.0, 816.0, 815.0, 815.0, 816.0, 817.0, 816.0, 814.0, 813.0, 813.0, 814.0, 815.0, 817.0, 816.0, 817.0, 817.0, 817.0, 816.0, 817.0, 817.0, 818.0, 819.0, 817.0, 815.0, 815.0, 816.0, 817.0, 818.0, 818.0, 816.0, 816.0, 817.0, 816.0, 816.0, 815.0, 816.0, 816.0, 816.0, 816.0, 816.0, 817.0, 817.0, 816.0, 815.0, 815.0, 815.0, 815.0, 815.0, 816.0, 815.0, 813.0, 813.0, 814.0, 816.0, 817.0, 816.0, 815.0, 813.0, 814.0, 815.0, 816.0, 814.0, 814.0, 815.0, 815.0, 816.0, 817.0, 818.0, 815.0],
      "WindowWidth": [1744.0, 1742.0, 1746.0, 1744.0, 1741.0, 1739.0, 1742.0, 1744.0, 1747.0, 1747.0, 1745.0, 1745.0, 1744.0, 1747.0, 1745.0, 1743.0, 1743.0, 1746.0, 1747.0, 1745.0, 1742.0, 1743.0, 1744.0, 1745.0, 1744.0, 1742.0, 1741.0, 1746.0, 1749.0, 1746.0, 1744.0, 1742.0, 1742.0, 1743.0, 1745.0, 1745.0, 1747.0, 1749.0, 1747.0, 1746.0, 1743.0, 1747.0, 1751.0, 1751.0, 1746.0, 1740.0, 1742.0, 1746.0, 1746.0, 1744.0, 1742.0, 1744.0, 1744.0, 1744.0, 1746.0, 1746.0, 1745.0, 1745.0, 1747.0, 1749.0, 1747.0, 1745.0, 1745.0, 1746.0, 1744.0, 1743.0, 1743.0, 1747.0, 1747.0, 1743.0, 1742.0, 1745.0, 1744.0, 1742.0, 1742.0, 1744.0, 1744.0, 1744.0, 1747.0, 1748.0, 1747.0, 1746.0, 1751.0, 1747.0, 1747.0, 1745.0, 1742.0, 1742.0, 1745.0, 1747.0, 1749.0, 1749.0, 1742.0, 1739.0, 1739.0, 1741.0, 1743.0, 1739.0, 1737.0, 1739.0, 1738.0, 1737.0, 1739.0, 1743.0, 1742.0, 1739.0, 1738.0, 1739.0, 1741.0, 1743.0, 1744.0, 1743.0, 1743.0, 1745.0, 1744.0, 1743.0, 1738.0, 1741.0, 1743.0, 1743.0, 1741.0, 1738.0, 1737.0, 1740.0, 1743.0, 1741.0, 1738.0, 1736.0, 1740.0, 1736.0, 1740.0, 1741.0, 1741.0, 1737.0, 1737.0, 1741.0, 1745.0, 1746.0, 1743.0, 1740.0, 1740.0, 1742.0, 1744.0, 1744.0, 1742.0, 1742.0, 1742.0, 1742.0, 1743.0, 1742.0, 1741.0, 1739.0, 1737.0, 1738.0, 1742.0, 1742.0, 1741.0, 1743.0, 1745.0, 1744.0, 1742.0, 1741.0, 1738.0, 1736.0, 1739.0, 1742.0, 1746.0, 1744.0, 1744.0, 1743.0, 1739.0, 1736.0, 1735.0, 1737.0, 1738.0, 1736.0, 1735.0, 1734.0, 1737.0, 1739.0, 1739.0, 1740.0, 1739.0, 1737.0, 1741.0, 1736.0, 1746.0, 1743.0, 1739.0, 1736.0, 1738.0, 1739.0, 1741.0, 1738.0, 1734.0, 1731.0, 1731.0, 1735.0, 1736.0, 1743.0, 1738.0, 1740.0, 1740.0, 1740.0, 1740.0, 1741.0, 1742.0, 1745.0, 1745.0, 1741.0, 1737.0, 1735.0, 1738.0, 1742.0, 1744.0, 1742.0, 1739.0, 1739.0, 1741.0, 1740.0, 1739.0, 1736.0, 1738.0, 1739.0, 1739.0, 1738.0, 1740.0, 1742.0, 1742.0, 1739.0, 1735.0, 1735.0, 1736.0, 1737.0, 1737.0, 1739.0, 1735.0, 1731.0, 1732.0, 1734.0, 1739.0, 1740.0, 1740.0, 1736.0, 1732.0, 1734.0, 1737.0, 1738.0, 1735.0, 1733.0, 1737.0, 1737.0, 1739.0, 1740.0, 1743.0, 1735.0]
    },
    "slices": {}
  }
}