{
 "AcquisitionMatrixPE": 100,
 "AcquisitionNumber": 1,
 "AcquisitionTime": "14:58:1.162500",
 "BandwidthPerPixelPhaseEncode": 18.519,
 "BaseResolution": 100,
 "BodyPartExamined": "BRAIN",
 "ConsistencyInfo": "N4_VE11C_LATEST_20160120",
 "ConversionSoftware": "dcm2niix",
 "ConversionSoftwareVersion": "v1.0.20180622 GCC4.9.2",
 "DerivedVendorReportedEchoSpacing": 0.000539986,
 "DeviceSerialNumber": "166078",
 "DwellTime": 2.1e-06,
 "EchoTime": 0.034,
 "EchoTrainLength": 100,
 "EffectiveEchoSpacing": 0.000539986,
 "FlipAngle": 90,
 "ImageOrientationPatientDICOM": [
  1,
  0,
  0,
  0,
  0.959314,
  -0.282341
 ],
 "ImageType": [
  "ORIGINAL",
  "PRIMARY",
  "M",
  "ND",
  "MOSAIC"
 ],
 "InPlanePhaseEncodingDirectionDICOM": "COL",
 "InstitutionAddress": "Street_StreetNo_Bei_Jing_District_CN_ZIP",
 "InstitutionName": "BeiJing_Normal_University",
 "InstitutionalDepartmentName": "Department",
 "MRAcquisitionType": "2D",
 "MagneticFieldStrength": 3,
 "Manufacturer": "Siemens",
 "ManufacturersModelName": "Prisma",
 "Modality": "MR",
 "MultibandAccelerationFactor": 3,
 "PartialFourier": 1,
 "PatientPosition": "HFS",
 "PercentPhaseFOV": 100,
 "PhaseEncodingDirection": "j-",
 "PhaseEncodingSteps": 100,
 "PhaseResolution": 1,
 "PixelBandwidth": 2380,
 "ProcedureStepDescription": "BNU_P2018_64CH_Zhen.ZongLei",
 "ProtocolName": "bold_100x100_s3_2x2x2_static_256",
 "PulseSequenceDetails": "%SiemensSeq%_ep2d_bold",
 "ReceiveCoilActiveElements": "HC1-7;NC1",
 "ReceiveCoilName": "HeadNeck_64",
 "ReconMatrixPE": 100,
 "RepetitionTime": 2,
 "SAR": 0.0858044,
 "ScanOptions": "FS",
 "ScanningSequence": "EP",
 "SequenceName": "_epfid2d1_100",
 "SequenceVariant": "SK",
 "SeriesDescription": "bold_100x100_s3_2x2x2_static_256",
 "SeriesNumber": 14,
 "ShimSetting": [
  -5458,
  -11481,
  -1288,
  427,
  2,
  -166,
  -130,
  77
 ],
 "SliceThickness": 2,
 "SliceTiming": [
  1.485,
  0,
  0.99,
  0.0825,
  1.0725,
  0.165,
  1.155,
  0.2475,
  1.2375,
  0.33,
  1.32,
  0.4125,
  1.4025,
  0.5775,
  1.5675,
  0.66,
  1.65,
  0.7425,
  1.7325,
  0.825,
  1.815,
  0.9075,
  1.8975,
  0.495,
  1.485,
  0,
  0.99,
  0.0825,
  1.0725,
  0.165,
  1.155,
  0.2475,
  1.2375,
  0.33,
  1.32,
  0.4125,
  1.4025,
  0.5775,
  1.5675,
  0.66,
  1.65,
  0.7425,
  1.7325,
  0.825,
  1.815,
  0.9075,
  1.8975,
  0.495,
  1.485,
  0,
  0.99,
  0.0825,
  1.0725,
  0.165,
  1.155,
  0.2475,
  1.2375,
  0.33,
  1.32,
  0.4125,
  1.4025,
  0.5775,
  1.5675,
  0.66,
  1.65,
  0.7425,
  1.7325,
  0.825,
  1.815,
  0.9075,
  1.8975,
  0.495
 ],
 "SoftwareVersions": "syngo_MR_E11",
 "SpacingBetweenSlices": 2,
 "StationName": "AWP166078",
 "TaskName": "imagenet",
 "TotalReadoutTime": 0.0534586,
 "TxRefAmp": 233.016,
 "dcmmeta_affine": [
  [
   -2.0,
   0.0,
   0.0,
   100.0
  ],
  [
   0.0,
   1.9186279773712158,
   -0.5646828413009644,
   -72.60266876220703
  ],
  [
   0.0,
   0.5646829009056091,
   1.9186278581619263,
   -108.11810302734375
  ],
  [
   0.0,
   0.0,
   0.0,
   1.0
  ]
 ],
 "dcmmeta_reorient_transform": [
  [
   0.0,
   -1.0,
   0.0,
   99.0
  ],
  [
   1.0,
   0.0,
   0.0,
   0.0
  ],
  [
   0.0,
   0.0,
   1.0,
   0.0
  ],
  [
   0.0,
   0.0,
   0.0,
   1.0
  ]
 ],
 "dcmmeta_shape": [
  100,
  100,
  72,
  256
 ],
 "dcmmeta_slice_dim": 2,
 "dcmmeta_version": 0.6,
 "global": {
  "const": {
   "AcquisitionMatrix": [
    100,
    0,
    0,
    100
   ],
   "AngioFlag": "N",
   "BitsAllocated": 16,
   "BitsStored": 12,
   "BodyPartExamined": "BRAIN",
   "Columns": 900,
   "EchoNumbers": 1,
   "EchoTime": 34.0,
   "EchoTrainLength": 100,
   "FlipAngle": 90.0,
   "HighBit": 11,
   "ImageOrientationPatient": [
    1.0,
    0.0,
    0.0,
    0.0,
    0.95931397909575,
    -0.282341441364
   ],
   "ImagePositionPatient": [
    -900.0,
    -884.79268021572,
    173.65865831154
   ],
   "ImageType": [
    "ORIGINAL",
    "PRIMARY",
    "M",
    "ND",
    "MOSAIC"
   ],
   "ImagedNucleus": "1H",
   "ImagingFrequency": 123.257798,
   "InPlanePhaseEncodingDirection": "COL",
   "MRAcquisitionType": "2D",
   "MagneticFieldStrength": 3.0,
   "Manufacturer": "SIEMENS",
   "ManufacturerModelName": "Prisma",
   "Modality": "MR",
   "NumberOfAverages": 1.0,
   "NumberOfPhaseEncodingSteps": 100,
   "PercentPhaseFieldOfView": 100.0,
   "PercentSampling": 100.0,
   "PerformedProcedureStepStartTime": "132301.583000",
   "PhotometricInterpretation": "MONOCHROME2",
   "PixelBandwidth": 2380.0,
   "PixelRepresentation": 0,
   "PixelSpacing": [
    2.0,
    2.0
   ],
   "ProtocolName": "bold_100x100_s3_2x2x2_static_256",
   "RepetitionTime": 2000.0,
   "Rows": 900,
   "SAR": 0.08580442230011,
   "SamplesPerPixel": 1,
   "ScanOptions": "FS",
   "ScanningSequence": "EP",
   "SequenceName": "*epfid2d1_100",
   "SequenceVariant": "SK",
   "SeriesDescription": "bold_100x100_s3_2x2x2_static_256",
   "SeriesNumber": 14,
   "SeriesTime": "145804.159000",
   "SliceLocation": -83.220462131106,
   "SliceThickness": 2.0,
   "SmallestImagePixelValue": 0,
   "SoftwareVersions": "syngo MR E11",
   "SpacingBetweenSlices": 1.9999999420059,
   "SpecificCharacterSet": "ISO_IR 100",
   "StudyID": "1",
   "StudyTime": "132301.505000",
   "TransmitCoilName": "Body",
   "VariableFlipAngleFlag": "N",
   "WindowCenterWidthExplanation": "Algo1",
   "dBdt": 0.0
  },
  "slices": {}
 },
 "time": {
  "samples": {
   "AcquisitionNumber": [
    1,
    2,
    3,
    4,
    5,
    6,
    7,
    8,
    9,
    10,
    11,
    12,
    13,
    14,
    15,
    16,
    17,
    18,
    19,
    20,
    21,
    22,
    23,
    24,
    25,
    26,
    27,
    28,
    29,
    30,
    31,
    32,
    33,
    34,
    35,
    36,
    37,
    38,
    39,
    40,
    41,
    42,
    43,
    44,
    45,
    46,
    47,
    48,
    49,
    50,
    51,
    52,
    53,
    54,
    55,
    56,
    57,
    58,
    59,
    60,
    61,
    62,
    63,
    64,
    65,
    66,
    67,
    68,
    69,
    70,
    71,
    72,
    73,
    74,
    75,
    76,
    77,
    78,
    79,
    80,
    81,
    82,
    83,
    84,
    85,
    86,
    87,
    88,
    89,
    90,
    91,
    92,
    93,
    94,
    95,
    96,
    97,
    98,
    99,
    100,
    101,
    102,
    103,
    104,
    105,
    106,
    107,
    108,
    109,
    110,
    111,
    112,
    113,
    114,
    115,
    116,
    117,
    118,
    119,
    120,
    121,
    122,
    123,
    124,
    125,
    126,
    127,
    128,
    129,
    130,
    131,
    132,
    133,
    134,
    135,
    136,
    137,
    138,
    139,
    140,
    141,
    142,
    143,
    144,
    145,
    146,
    147,
    148,
    149,
    150,
    151,
    152,
    153,
    154,
    155,
    156,
    157,
    158,
    159,
    160,
    161,
    162,
    163,
    164,
    165,
    166,
    167,
    168,
    169,
    170,
    171,
    172,
    173,
    174,
    175,
    176,
    177,
    178,
    179,
    180,
    181,
    182,
    183,
    184,
    185,
    186,
    187,
    188,
    189,
    190,
    191,
    192,
    193,
    194,
    195,
    196,
    197,
    198,
    199,
    200,
    201,
    202,
    203,
    204,
    205,
    206,
    207,
    208,
    209,
    210,
    211,
    212,
    213,
    214,
    215,
    216,
    217,
    218,
    219,
    220,
    221,
    222,
    223,
    224,
    225,
    226,
    227,
    228,
    229,
    230,
    231,
    232,
    233,
    234,
    235,
    236,
    237,
    238,
    239,
    240,
    241,
    242,
    243,
    244,
    245,
    246,
    247,
    248,
    249,
    250,
    251,
    252,
    253,
    254,
    255,
    256
   ],
   "AcquisitionTime": [
    "145801.162500",
    "145803.162500",
    "145805.162500",
    "145807.162500",
    "145809.162500",
    "145811.162500",
    "145813.162500",
    "145815.162500",
    "145817.162500",
    "145819.162500",
    "145821.162500",
    "145823.162500",
    "145825.162500",
    "145827.162500",
    "145829.162500",
    "145831.162500",
    "145833.162500",
    "145835.162500",
    "145837.162500",
    "145839.162500",
    "145841.162500",
    "145843.162500",
    "145845.162500",
    "145847.162500",
    "145849.162500",
    "145851.162500",
    "145853.162500",
    "145855.162500",
    "145857.162500",
    "145859.162500",
    "145901.162500",
    "145903.162500",
    "145905.162500",
    "145907.162500",
    "145909.162500",
    "145911.162500",
    "145913.162500",
    "145915.162500",
    "145917.162500",
    "145919.162500",
    "145921.162500",
    "145923.162500",
    "145925.162500",
    "145927.162500",
    "145929.162500",
    "145931.162500",
    "145933.162500",
    "145935.162500",
    "145937.162500",
    "145939.162500",
    "145941.162500",
    "145943.162500",
    "145945.162500",
    "145947.162500",
    "145949.162500",
    "145951.162500",
    "145953.162500",
    "145955.162500",
    "145957.162500",
    "145959.162500",
    "150001.162500",
    "150003.162500",
    "150005.162500",
    "150007.162500",
    "150009.162500",
    "150011.162500",
    "150013.162500",
    "150015.162500",
    "150017.162500",
    "150019.162500",
    "150021.162500",
    "150023.162500",
    "150025.162500",
    "150027.162500",
    "150029.162500",
    "150031.162500",
    "150033.162500",
    "150035.162500",
    "150037.162500",
    "150039.162500",
    "150041.162500",
    "150043.162500",
    "150045.162500",
    "150047.162500",
    "150049.162500",
    "150051.162500",
    "150053.162500",
    "150055.162500",
    "150057.162500",
    "150059.162500",
    "150101.162500",
    "150103.162500",
    "150105.162500",
    "150107.162500",
    "150109.162500",
    "150111.162500",
    "150113.162500",
    "150115.162500",
    "150117.162500",
    "150119.162500",
    "150121.162500",
    "150123.162500",
    "150125.162500",
    "150127.162500",
    "150129.162500",
    "150131.162500",
    "150133.162500",
    "150135.162500",
    "150137.162500",
    "150139.162500",
    "150141.162500",
    "150143.162500",
    "150145.162500",
    "150147.162500",
    "150149.162500",
    "150151.162500",
    "150153.162500",
    "150155.162500",
    "150157.162500",
    "150159.162500",
    "150201.162500",
    "150203.162500",
    "150205.162500",
    "150207.162500",
    "150209.162500",
    "150211.162500",
    "150213.162500",
    "150215.162500",
    "150217.162500",
    "150219.162500",
    "150221.162500",
    "150223.162500",
    "150225.162500",
    "150227.162500",
    "150229.162500",
    "150231.162500",
    "150233.162500",
    "150235.162500",
    "150237.162500",
    "150239.162500",
    "150241.162500",
    "150243.162500",
    "150245.162500",
    "150247.162500",
    "150249.162500",
    "150251.162500",
    "150253.162500",
    "150255.162500",
    "150257.162500",
    "150259.162500",
    "150301.162500",
    "150303.162500",
    "150305.162500",
    "150307.162500",
    "150309.162500",
    "150311.162500",
    "150313.162500",
    "150315.162500",
    "150317.162500",
    "150319.162500",
    "150321.162500",
    "150323.162500",
    "150325.162500",
    "150327.162500",
    "150329.162500",
    "150331.162500",
    "150333.162500",
    "150335.162500",
    "150337.162500",
    "150339.162500",
    "150341.162500",
    "150343.162500",
    "150345.162500",
    "150347.162500",
    "150349.162500",
    "150351.162500",
    "150353.162500",
    "150355.162500",
    "150357.162500",
    "150359.162500",
    "150401.162500",
    "150403.162500",
    "150405.162500",
    "150407.162500",
    "150409.162500",
    "150411.162500",
    "150413.162500",
    "150415.162500",
    "150417.162500",
    "150419.162500",
    "150421.162500",
    "150423.162500",
    "150425.162500",
    "150427.162500",
    "150429.162500",
    "150431.162500",
    "150433.162500",
    "150435.162500",
    "150437.162500",
    "150439.162500",
    "150441.162500",
    "150443.162500",
    "150445.162500",
    "150447.162500",
    "150449.162500",
    "150451.162500",
    "150453.162500",
    "150455.162500",
    "150457.162500",
    "150459.162500",
    "150501.162500",
    "150503.162500",
    "150505.162500",
    "150507.162500",
    "150509.162500",
    "150511.162500",
    "150513.162500",
    "150515.162500",
    "150517.162500",
    "150519.162500",
    "150521.162500",
    "150523.162500",
    "150525.162500",
    "150527.162500",
    "150529.162500",
    "150531.162500",
    "150533.162500",
    "150535.162500",
    "150537.162500",
    "150539.162500",
    "150541.162500",
    "150543.162500",
    "150545.162500",
    "150547.162500",
    "150549.162500",
    "150551.162500",
    "150553.162500",
    "150555.162500",
    "150557.162500",
    "150559.162500",
    "150601.162500",
    "150603.162500",
    "150605.162500",
    "150607.162500",
    "150609.162500",
    "150611.162500",
    "150613.162500",
    "150615.162500",
    "150617.162500",
    "150619.162500",
    "150621.162500",
    "150623.162500",
    "150625.162500",
    "150627.162500",
    "150629.162500",
    "150631.162500"
   ],
   "ContentTime": [
    "145804.163000",
    "145805.658000",
    "145807.659000",
    "145809.659000",
    "145811.659000",
    "145813.659000",
    "145815.659000",
    "145817.659000",
    "145819.659000",
    "145821.658000",
    "145823.658000",
    "145825.659000",
    "145827.659000",
    "145829.658000",
    "145831.659000",
    "145833.658000",
    "145835.658000",
    "145837.659000",
    "145839.658000",
    "145841.658000",
    "145843.659000",
    "145845.659000",
    "145847.659000",
    "145849.658000",
    "145851.658000",
    "145853.659000",
    "145855.659000",
    "145857.659000",
    "145859.659000",
    "145901.659000",
    "145903.658000",
    "145905.659000",
    "145907.658000",
    "145909.658000",
    "145911.658000",
    "145913.659000",
    "145915.659000",
    "145917.659000",
    "145919.659000",
    "145921.659000",
    "145923.659000",
    "145925.659000",
    "145927.659000",
    "145929.659000",
    "145931.658000",
    "145933.659000",
    "145935.658000",
    "145937.659000",
    "145939.659000",
    "145941.659000",
    "145943.658000",
    "145945.659000",
    "145947.658000",
    "145949.659000",
    "145951.659000",
    "145953.659000",
    "145955.659000",
    "145957.659000",
    "145959.659000",
    "150001.658000",
    "150003.658000",
    "150005.659000",
    "150007.658000",
    "150009.659000",
    "150011.658000",
    "150013.659000",
    "150015.659000",
    "150017.659000",
    "150019.658000",
    "150021.659000",
    "150023.659000",
    "150025.658000",
    "150027.659000",
    "150029.658000",
    "150031.659000",
    "150033.659000",
    "150035.659000",
    "150037.659000",
    "150039.659000",
    "150041.658000",
    "150043.658000",
    "150045.658000",
    "150047.659000",
    "150049.659000",
    "150051.659000",
    "150053.659000",
    "150055.659000",
    "150057.658000",
    "150059.658000",
    "150101.658000",
    "150103.658000",
    "150105.659000",
    "150107.659000",
    "150109.659000",
    "150111.658000",
    "150113.660000",
    "150115.659000",
    "150117.659000",
    "150119.659000",
    "150121.659000",
    "150123.659000",
    "150125.658000",
    "150127.659000",
    "150129.659000",
    "150131.659000",
    "150133.658000",
    "150135.659000",
    "150137.659000",
    "150139.658000",
    "150141.659000",
    "150143.659000",
    "150145.658000",
    "150147.659000",
    "150149.659000",
    "150151.658000",
    "150153.659000",
    "150155.658000",
    "150157.659000",
    "150159.658000",
    "150201.658000",
    "150203.658000",
    "150205.659000",
    "150207.659000",
    "150209.659000",
    "150211.658000",
    "150213.659000",
    "150215.659000",
    "150217.658000",
    "150219.658000",
    "150221.659000",
    "150223.658000",
    "150225.659000",
    "150227.658000",
    "150229.659000",
    "150231.659000",
    "150233.658000",
    "150235.658000",
    "150237.658000",
    "150239.659000",
    "150241.659000",
    "150243.659000",
    "150245.658000",
    "150247.659000",
    "150249.659000",
    "150251.659000",
    "150253.659000",
    "150255.659000",
    "150257.658000",
    "150259.658000",
    "150301.659000",
    "150303.658000",
    "150305.659000",
    "150307.659000",
    "150309.659000",
    "150311.658000",
    "150313.659000",
    "150315.658000",
    "150317.659000",
    "150319.659000",
    "150321.659000",
    "150323.659000",
    "150325.659000",
    "150327.659000",
    "150329.659000",
    "150331.659000",
    "150333.660000",
    "150335.659000",
    "150337.658000",
    "150339.659000",
    "150341.659000",
    "150343.659000",
    "150345.659000",
    "150347.659000",
    "150349.659000",
    "150351.658000",
    "150353.658000",
    "150355.659000",
    "150357.659000",
    "150359.659000",
    "150401.658000",
    "150403.660000",
    "150405.658000",
    "150407.658000",
    "150409.659000",
    "150411.659000",
    "150413.659000",
    "150415.658000",
    "150417.659000",
    "150419.659000",
    "150421.659000",
    "150423.659000",
    "150425.659000",
    "150427.658000",
    "150429.658000",
    "150431.659000",
    "150433.659000",
    "150435.659000",
    "150437.659000",
    "150439.671000",
    "150441.659000",
    "150443.659000",
    "150445.659000",
    "150447.660000",
    "150449.660000",
    "150451.659000",
    "150453.660000",
    "150455.659000",
    "150457.659000",
    "150459.658000",
    "150501.659000",
    "150503.659000",
    "150505.659000",
    "150507.658000",
    "150509.659000",
    "150511.659000",
    "150513.660000",
    "150515.659000",
    "150517.659000",
    "150519.659000",
    "150521.659000",
    "150523.659000",
    "150525.658000",
    "150527.658000",
    "150529.659000",
    "150531.659000",
    "150533.659000",
    "150535.659000",
    "150537.659000",
    "150539.659000",
    "150541.659000",
    "150543.659000",
    "150545.659000",
    "150547.659000",
    "150549.659000",
    "150551.659000",
    "150553.659000",
    "150555.659000",
    "150557.659000",
    "150559.658000",
    "150601.659000",
    "150603.660000",
    "150605.660000",
    "150607.659000",
    "150609.659000",
    "150611.661000",
    "150613.658000",
    "150615.659000",
    "150617.659000",
    "150619.659000",
    "150621.659000",
    "150623.659000",
    "150625.659000",
    "150627.659000",
    "150629.659000",
    "150631.659000",
    "150633.245000"
   ],
   "InstanceCreationTime": [
    "145804.163000",
    "145805.658000",
    "145807.659000",
    "145809.659000",
    "145811.659000",
    "145813.659000",
    "145815.659000",
    "145817.659000",
    "145819.659000",
    "145821.658000",
    "145823.658000",
    "145825.659000",
    "145827.659000",
    "145829.658000",
    "145831.659000",
    "145833.658000",
    "145835.658000",
    "145837.659000",
    "145839.658000",
    "145841.658000",
    "145843.659000",
    "145845.659000",
    "145847.659000",
    "145849.658000",
    "145851.658000",
    "145853.659000",
    "145855.659000",
    "145857.659000",
    "145859.659000",
    "145901.659000",
    "145903.658000",
    "145905.659000",
    "145907.658000",
    "145909.658000",
    "145911.658000",
    "145913.659000",
    "145915.659000",
    "145917.659000",
    "145919.659000",
    "145921.659000",
    "145923.659000",
    "145925.659000",
    "145927.659000",
    "145929.659000",
    "145931.658000",
    "145933.659000",
    "145935.658000",
    "145937.659000",
    "145939.659000",
    "145941.659000",
    "145943.658000",
    "145945.659000",
    "145947.658000",
    "145949.659000",
    "145951.659000",
    "145953.659000",
    "145955.659000",
    "145957.659000",
    "145959.659000",
    "150001.658000",
    "150003.658000",
    "150005.659000",
    "150007.658000",
    "150009.659000",
    "150011.658000",
    "150013.659000",
    "150015.659000",
    "150017.659000",
    "150019.658000",
    "150021.659000",
    "150023.659000",
    "150025.658000",
    "150027.659000",
    "150029.658000",
    "150031.659000",
    "150033.659000",
    "150035.659000",
    "150037.659000",
    "150039.659000",
    "150041.658000",
    "150043.658000",
    "150045.658000",
    "150047.659000",
    "150049.659000",
    "150051.659000",
    "150053.659000",
    "150055.659000",
    "150057.658000",
    "150059.658000",
    "150101.658000",
    "150103.658000",
    "150105.659000",
    "150107.659000",
    "150109.659000",
    "150111.658000",
    "150113.660000",
    "150115.659000",
    "150117.659000",
    "150119.659000",
    "150121.659000",
    "150123.659000",
    "150125.658000",
    "150127.659000",
    "150129.659000",
    "150131.659000",
    "150133.658000",
    "150135.659000",
    "150137.659000",
    "150139.658000",
    "150141.659000",
    "150143.659000",
    "150145.658000",
    "150147.659000",
    "150149.659000",
    "150151.658000",
    "150153.659000",
    "150155.658000",
    "150157.659000",
    "150159.658000",
    "150201.658000",
    "150203.658000",
    "150205.659000",
    "150207.659000",
    "150209.659000",
    "150211.658000",
    "150213.659000",
    "150215.659000",
    "150217.658000",
    "150219.658000",
    "150221.659000",
    "150223.658000",
    "150225.659000",
    "150227.658000",
    "150229.659000",
    "150231.659000",
    "150233.658000",
    "150235.658000",
    "150237.658000",
    "150239.659000",
    "150241.659000",
    "150243.659000",
    "150245.658000",
    "150247.659000",
    "150249.659000",
    "150251.659000",
    "150253.659000",
    "150255.659000",
    "150257.658000",
    "150259.658000",
    "150301.659000",
    "150303.658000",
    "150305.659000",
    "150307.659000",
    "150309.659000",
    "150311.658000",
    "150313.659000",
    "150315.658000",
    "150317.659000",
    "150319.659000",
    "150321.659000",
    "150323.659000",
    "150325.659000",
    "150327.659000",
    "150329.659000",
    "150331.659000",
    "150333.660000",
    "150335.659000",
    "150337.658000",
    "150339.659000",
    "150341.659000",
    "150343.659000",
    "150345.659000",
    "150347.659000",
    "150349.659000",
    "150351.658000",
    "150353.658000",
    "150355.659000",
    "150357.659000",
    "150359.659000",
    "150401.658000",
    "150403.660000",
    "150405.658000",
    "150407.658000",
    "150409.659000",
    "150411.659000",
    "150413.659000",
    "150415.658000",
    "150417.659000",
    "150419.659000",
    "150421.659000",
    "150423.659000",
    "150425.659000",
    "150427.658000",
    "150429.658000",
    "150431.659000",
    "150433.659000",
    "150435.659000",
    "150437.659000",
    "150439.671000",
    "150441.659000",
    "150443.659000",
    "150445.659000",
    "150447.660000",
    "150449.660000",
    "150451.659000",
    "150453.660000",
    "150455.659000",
    "150457.659000",
    "150459.658000",
    "150501.659000",
    "150503.659000",
    "150505.659000",
    "150507.658000",
    "150509.659000",
    "150511.659000",
    "150513.660000",
    "150515.659000",
    "150517.659000",
    "150519.659000",
    "150521.659000",
    "150523.659000",
    "150525.658000",
    "150527.658000",
    "150529.659000",
    "150531.659000",
    "150533.659000",
    "150535.659000",
    "150537.659000",
    "150539.659000",
    "150541.659000",
    "150543.659000",
    "150545.659000",
    "150547.659000",
    "150549.659000",
    "150551.659000",
    "150553.659000",
    "150555.659000",
    "150557.659000",
    "150559.658000",
    "150601.659000",
    "150603.660000",
    "150605.660000",
    "150607.659000",
    "150609.659000",
    "150611.661000",
    "150613.658000",
    "150615.659000",
    "150617.659000",
    "150619.659000",
    "150621.659000",
    "150623.659000",
    "150625.659000",
    "150627.659000",
    "150629.659000",
    "150631.659000",
    "150633.245000"
   ],
   "InstanceNumber": [
    1,
    2,
    3,
    4,
    5,
    6,
    7,
    8,
    9,
    10,
    11,
    12,
    13,
    14,
    15,
    16,
    17,
    18,
    19,
    20,
    21,
    22,
    23,
    24,
    25,
    26,
    27,
    28,
    29,
    30,
    31,
    32,
    33,
    34,
    35,
    36,
    37,
    38,
    39,
    40,
    41,
    42,
    43,
    44,
    45,
    46,
    47,
    48,
    49,
    50,
    51,
    52,
    53,
    54,
    55,
    56,
    57,
    58,
    59,
    60,
    61,
    62,
    63,
    64,
    65,
    66,
    67,
    68,
    69,
    70,
    71,
    72,
    73,
    74,
    75,
    76,
    77,
    78,
    79,
    80,
    81,
    82,
    83,
    84,
    85,
    86,
    87,
    88,
    89,
    90,
    91,
    92,
    93,
    94,
    95,
    96,
    97,
    98,
    99,
    100,
    101,
    102,
    103,
    104,
    105,
    106,
    107,
    108,
    109,
    110,
    111,
    112,
    113,
    114,
    115,
    116,
    117,
    118,
    119,
    120,
    121,
    122,
    123,
    124,
    125,
    126,
    127,
    128,
    129,
    130,
    131,
    132,
    133,
    134,
    135,
    136,
    137,
    138,
    139,
    140,
    141,
    142,
    143,
    144,
    145,
    146,
    147,
    148,
    149,
    150,
    151,
    152,
    153,
    154,
    155,
    156,
    157,
    158,
    159,
    160,
    161,
    162,
    163,
    164,
    165,
    166,
    167,
    168,
    169,
    170,
    171,
    172,
    173,
    174,
    175,
    176,
    177,
    178,
    179,
    180,
    181,
    182,
    183,
    184,
    185,
    186,
    187,
    188,
    189,
    190,
    191,
    192,
    193,
    194,
    195,
    196,
    197,
    198,
    199,
    200,
    201,
    202,
    203,
    204,
    205,
    206,
    207,
    208,
    209,
    210,
    211,
    212,
    213,
    214,
    215,
    216,
    217,
    218,
    219,
    220,
    221,
    222,
    223,
    224,
    225,
    226,
    227,
    228,
    229,
    230,
    231,
    232,
    233,
    234,
    235,
    236,
    237,
    238,
    239,
    240,
    241,
    242,
    243,
    244,
    245,
    246,
    247,
    248,
    249,
    250,
    251,
    252,
    253,
    254,
    255,
    256
   ],
   "LargestImagePixelValue": [
    3037,
    2878,
    2902,
    2874,
    2893,
    2870,
    2869,
    2880,
    2872,
    2876,
    3068,
    2863,
    2892,
    2871,
    2861,
    2933,
    2863,
    2873,
    2861,
    2875,
    2848,
    2866,
    2866,
    2882,
    2881,
    2864,
    2877,
    2853,
    2860,
    2863,
    2895,
    2879,
    2895,
    2906,
    2885,
    2877,
    2881,
    2871,
    2868,
    3062,
    2879,
    2849,
    2868,
    2858,
    2874,
    2860,
    2862,
    2867,
    2867,
    2861,
    2874,
    2851,
    2868,
    2858,
    2862,
    2837,
    2868,
    2873,
    2867,
    2843,
    2863,
    2885,
    2915,
    2897,
    2866,
    2868,
    2873,
    2857,
    2870,
    2852,
    2885,
    2885,
    2855,
    2860,
    2857,
    2861,
    2855,
    2888,
    2863,
    2896,
    2901,
    2885,
    2865,
    2879,
    2872,
    2863,
    2872,
    2878,
    2867,
    2867,
    2887,
    2857,
    2842,
    2850,
    2856,
    2866,
    2877,
    2841,
    2852,
    2862,
    2855,
    2855,
    2856,
    2876,
    2849,
    2878,
    2845,
    2853,
    2837,
    2855,
    2883,
    2863,
    2869,
    2882,
    2874,
    2884,
    2845,
    2842,
    2841,
    2869,
    2854,
    2833,
    2837,
    2855,
    2851,
    2857,
    2844,
    2837,
    2831,
    2860,
    2869,
    2892,
    2865,
    2892,
    2910,
    2891,
    2873,
    2860,
    2895,
    2852,
    2863,
    2858,
    2872,
    2875,
    2845,
    2849,
    2886,
    2852,
    2868,
    2896,
    2858,
    2865,
    2880,
    2873,
    2858,
    2876,
    2856,
    2851,
    2843,
    2855,
    2896,
    2887,
    2851,
    2843,
    2861,
    2870,
    2856,
    2872,
    2865,
    2862,
    2857,
    2863,
    2863,
    2860,
    2853,
    2833,
    2858,
    2870,
    2843,
    2870,
    2853,
    2857,
    2859,
    2987,
    2861,
    2854,
    2883,
    2862,
    2854,
    2847,
    2874,
    2842,
    2871,
    2860,
    2863,
    2853,
    2859,
    2875,
    2836,
    2851,
    2847,
    2856,
    2829,
    2865,
    2857,
    2867,
    2853,
    2860,
    2847,
    2871,
    2857,
    2825,
    2846,
    2846,
    2837,
    2860,
    2869,
    2857,
    2857,
    2857,
    2901,
    2880,
    2852,
    2874,
    2905,
    2850,
    2847,
    2874,
    2873,
    2860,
    2847,
    2840,
    2837,
    2840,
    2833,
    2854,
    2832,
    2851,
    2858,
    2860,
    2863,
    2857,
    2848,
    2851,
    2877,
    2859,
    2848,
    2860,
    2870,
    2833,
    2857,
    2885,
    2848,
    2876,
    2857,
    2997
   ],
   "WindowCenter": [
    822.0,
    820.0,
    819.0,
    818.0,
    817.0,
    817.0,
    818.0,
    819.0,
    819.0,
    819.0,
    820.0,
    819.0,
    819.0,
    819.0,
    818.0,
    818.0,
    818.0,
    818.0,
    818.0,
    817.0,
    817.0,
    817.0,
    818.0,
    818.0,
    818.0,
    817.0,
    817.0,
    817.0,
    817.0,
    818.0,
    817.0,
    816.0,
    816.0,
    817.0,
    818.0,
    819.0,
    818.0,
    816.0,
    816.0,
    819.0,
    818.0,
    817.0,
    817.0,
    817.0,
    817.0,
    817.0,
    817.0,
    818.0,
    817.0,
    816.0,
    816.0,
    817.0,
    818.0,
    817.0,
    815.0,
    815.0,
    816.0,
    816.0,
    817.0,
    817.0,
    819.0,
    819.0,
    818.0,
    818.0,
    818.0,
    818.0,
    818.0,
    816.0,
    817.0,
    818.0,
    819.0,
    819.0,
    818.0,
    817.0,
    816.0,
    817.0,
    818.0,
    820.0,
    822.0,
    821.0,
    820.0,
    818.0,
    818.0,
    819.0,
    819.0,
    818.0,
    818.0,
    818.0,
    818.0,
    819.0,
    818.0,
    816.0,
    816.0,
    816.0,
    817.0,
    817.0,
    817.0,
    816.0,
    817.0,
    818.0,
    817.0,
    817.0,
    816.0,
    818.0,
    817.0,
    816.0,
    815.0,
    816.0,
    817.0,
    817.0,
    817.0,
    817.0,
    816.0,
    816.0,
    817.0,
    817.0,
    817.0,
    817.0,
    817.0,
    817.0,
    818.0,
    817.0,
    816.0,
    817.0,
    818.0,
    817.0,
    816.0,
