{
  "AcquisitionMatrixPE": 100,
  "AcquisitionNumber": 1,
  "AcquisitionTime": "13:55:33.287500",
  "BandwidthPerPixelPhaseEncode": 18.519,
  "BaseResolution": 100,
  "BodyPartExamined": "BRAIN",
  "ConsistencyInfo": "N4_VE11C_LATEST_20160120",
  "ConversionSoftware": "dcm2niix",
  "ConversionSoftwareVersion": "v1.0.20180622 GCC4.9.2",
  "DerivedVendorReportedEchoSpacing": 0.000539986,
  "DeviceSerialNumber": "166078",
  "DwellTime": 2.1e-06,
  "EchoTime": 0.034,
  "EchoTrainLength": 100,
  "EffectiveEchoSpacing": 0.000539986,
  "FlipAngle": 90,
  "ImageOrientationPatientDICOM": [1, 0, 0, 0, 0.959314, -0.282341],
  "ImageType": [
    "ORIGINAL",
    "PRIMARY",
    "M",
    "ND",
    "MOSAIC"
],
  "InPlanePhaseEncodingDirectionDICOM": "COL",
  "InstitutionAddress": "Street_StreetNo_Bei_Jing_District_CN_ZIP",
  "InstitutionName": "BeiJing_Normal_University",
  "InstitutionalDepartmentName": "Department",
  "MRAcquisitionType": "2D",
  "MagneticFieldStrength": 3,
  "Manufacturer": "Siemens",
  "ManufacturersModelName": "Prisma",
  "Modality": "MR",
  "MultibandAccelerationFactor": 3,
  "PartialFourier": 1,
  "PatientPosition": "HFS",
  "PercentPhaseFOV": 100,
  "PhaseEncodingDirection": "j-",
  "PhaseEncodingSteps": 100,
  "PhaseResolution": 1,
  "PixelBandwidth": 2380,
  "ProcedureStepDescription": "BNU_P2018_64CH_Zhen.ZongLei",
  "ProtocolName": "bold_100x100_s3_2x2x2_static_256",
  "PulseSequenceDetails": "%SiemensSeq%_ep2d_bold",
  "ReceiveCoilActiveElements": "HC1-7;NC1",
  "ReceiveCoilName": "HeadNeck_64",
  "ReconMatrixPE": 100,
  "RepetitionTime": 2,
  "SAR": 0.0858044,
  "ScanOptions": "FS",
  "ScanningSequence": "EP",
  "SequenceName": "_epfid2d1_100",
  "SequenceVariant": "SK",
  "SeriesDescription": "bold_100x100_s3_2x2x2_static_256",
  "SeriesNumber": 6,
  "ShimSetting": [-5458, -11481, -1288, 427, 2, -166, -130, 77],
  "SliceThickness": 2,
  "SliceTiming": [1.485, 0, 0.99, 0.0825, 1.0725, 0.165, 1.155, 0.2475, 1.2375, 0.33, 1.32, 0.4125, 1.4025, 0.5775, 1.5675, 0.66, 1.65, 0.7425, 1.7325, 0.825, 1.815, 0.9075, 1.8975, 0.495, 1.485, 0, 0.99, 0.0825, 1.0725, 0.165, 1.155, 0.2475, 1.2375, 0.33, 1.32, 0.4125, 1.4025, 0.5775, 1.5675, 0.66, 1.65, 0.7425, 1.7325, 0.825, 1.815, 0.9075, 1.8975, 0.495, 1.485, 0, 0.99, 0.0825, 1.0725, 0.165, 1.155, 0.2475, 1.2375, 0.33, 1.32, 0.4125, 1.4025, 0.5775, 1.5675, 0.66, 1.65, 0.7425, 1.7325, 0.825, 1.815, 0.9075, 1.8975, 0.495],
  "SoftwareVersions": "syngo_MR_E11",
  "SpacingBetweenSlices": 2,
  "StationName": "AWP166078",
  "TaskName": "naturalvision",
  "TotalReadoutTime": 0.0534586,
  "TxRefAmp": 233.016,
  "dcmmeta_affine": [
    [-2.0, 0.0, 0.0, 100.0],
    [0.0, 1.9186279773712158, -0.5646828413009644, -72.60266876220703],
    [0.0, 0.5646829009056091, 1.9186278581619263, -108.11810302734375],
    [0.0, 0.0, 0.0, 1.0]
],
  "dcmmeta_reorient_transform": [
    [0.0, -1.0, 0.0, 99.0],
    [1.0, 0.0, 0.0, 0.0],
    [0.0, 0.0, 1.0, 0.0],
    [0.0, 0.0, 0.0, 1.0]
],
  "dcmmeta_shape": [100, 100, 72, 256],
  "dcmmeta_slice_dim": 2,
  "dcmmeta_version": 0.6,
  "global": {
    "const": {
      "AcquisitionMatrix": [100, 0, 0, 100],
      "AngioFlag": "N",
      "BitsAllocated": 16,
      "BitsStored": 12,
      "BodyPartExamined": "BRAIN",
      "Columns": 900,
      "EchoNumbers": 1,
      "EchoTime": 34.0,
      "EchoTrainLength": 100,
      "FlipAngle": 90.0,
      "HighBit": 11,
      "ImageOrientationPatient": [1.0, 0.0, 0.0, 0.0, 0.95931397909575, -0.282341441364],
      "ImagePositionPatient": [-900.0, -884.79268021572, 173.65865831154],
      "ImageType": [
        "ORIGINAL",
        "PRIMARY",
        "M",
        "ND",
        "MOSAIC"
],
      "ImagedNucleus": "1H",
      "ImagingFrequency": 123.257787,
      "InPlanePhaseEncodingDirection": "COL",
      "MRAcquisitionType": "2D",
      "MagneticFieldStrength": 3.0,
      "Manufacturer": "SIEMENS",
      "ManufacturerModelName": "Prisma",
      "Modality": "MR",
      "NumberOfAverages": 1.0,
      "NumberOfPhaseEncodingSteps": 100,
      "PercentPhaseFieldOfView": 100.0,
      "PercentSampling": 100.0,
      "PerformedProcedureStepStartTime": "132301.583000",
      "PhotometricInterpretation": "MONOCHROME2",
      "PixelBandwidth": 2380.0,
      "PixelRepresentation": 0,
      "PixelSpacing": [2.0, 2.0],
      "ProtocolName": "bold_100x100_s3_2x2x2_static_256",
      "RepetitionTime": 2000.0,
      "Rows": 900,
      "SAR": 0.08580442230011,
      "SamplesPerPixel": 1,
      "ScanOptions": "FS",
      "ScanningSequence": "EP",
      "SequenceName": "*epfid2d1_100",
      "SequenceVariant": "SK",
      "SeriesDescription": "bold_100x100_s3_2x2x2_static_256",
      "SeriesNumber": 6,
      "SeriesTime": "135535.719000",
      "SliceLocation": -83.220462131106,
      "SliceThickness": 2.0,
      "SmallestImagePixelValue": 0,
      "SoftwareVersions": "syngo MR E11",
      "SpacingBetweenSlices": 1.9999999420059,
      "SpecificCharacterSet": "ISO_IR 100",
      "StudyID": "1",
      "StudyTime": "132301.505000",
      "TransmitCoilName": "Body",
      "VariableFlipAngleFlag": "N",
      "WindowCenterWidthExplanation": "Algo1",
      "dBdt": 0.0},
    "slices": {}
  },
  "time": {
    "samples": {
      "AcquisitionNumber": [1, 2, 3, 4, 5, 6, 7, 8, 9, 10, 11, 12, 13, 14, 15, 16, 17, 18, 19, 20, 21, 22, 23, 24, 25, 26, 27, 28, 29, 30, 31, 32, 33, 34, 35, 36, 37, 38, 39, 40, 41, 42, 43, 44, 45, 46, 47, 48, 49, 50, 51, 52, 53, 54, 55, 56, 57, 58, 59, 60, 61, 62, 63, 64, 65, 66, 67, 68, 69, 70, 71, 72, 73, 74, 75, 76, 77, 78, 79, 80, 81, 82, 83, 84, 85, 86, 87, 88, 89, 90, 91, 92, 93, 94, 95, 96, 97, 98, 99, 100, 101, 102, 103, 104, 105, 106, 107, 108, 109, 110, 111, 112, 113, 114, 115, 116, 117, 118, 119, 120, 121, 122, 123, 124, 125, 126, 127, 128, 129, 130, 131, 132, 133, 134, 135, 136, 137, 138, 139, 140, 141, 142, 143, 144, 145, 146, 147, 148, 149, 150, 151, 152, 153, 154, 155, 156, 157, 158, 159, 160, 161, 162, 163, 164, 165, 166, 167, 168, 169, 170, 171, 172, 173, 174, 175, 176, 177, 178, 179, 180, 181, 182, 183, 184, 185, 186, 187, 188, 189, 190, 191, 192, 193, 194, 195, 196, 197, 198, 199, 200, 201, 202, 203, 204, 205, 206, 207, 208, 209, 210, 211, 212, 213, 214, 215, 216, 217, 218, 219, 220, 221, 222, 223, 224, 225, 226, 227, 228, 229, 230, 231, 232, 233, 234, 235, 236, 237, 238, 239, 240, 241, 242, 243, 244, 245, 246, 247, 248, 249, 250, 251, 252, 253, 254, 255, 256],
      "AcquisitionTime": ["135533.287500", "135535.287500", "135537.287500", "135539.287500", "135541.287500", "135543.287500", "135545.287500", "135547.287500", "135549.287500", "135551.287500", "135553.287500", "135555.287500", "135557.287500", "135559.287500", "135601.287500", "135603.287500", "135605.287500", "135607.287500", "135609.287500", "135611.287500", "135613.287500", "135615.287500", "135617.287500", "135619.287500", "135621.287500", "135623.287500", "135625.287500", "135627.287500", "135629.287500", "135631.287500", "135633.287500", "135635.287500", "135637.287500", "135639.287500", "135641.287500", "135643.287500", "135645.287500", "135647.287500", "135649.287500", "135651.287500", "135653.287500", "135655.287500", "135657.287500", "135659.287500", "135701.287500", "135703.287500", "135705.287500", "135707.287500", "135709.287500", "135711.287500", "135713.287500", "135715.287500", "135717.287500", "135719.287500", "135721.287500", "135723.287500", "135725.287500", "135727.287500", "135729.287500", "135731.287500", "135733.287500", "135735.287500", "135737.287500", "135739.287500", "135741.287500", "135743.287500", "135745.287500", "135747.287500", "135749.287500", "135751.287500", "135753.287500", "135755.287500", "135757.287500", "135759.287500", "135801.287500", "135803.287500", "135805.287500", "135807.287500", "135809.287500", "135811.287500", "135813.287500", "135815.287500", "135817.287500", "135819.287500", "135821.287500", "135823.287500", "135825.287500", "135827.287500", "135829.287500", "135831.287500", "135833.287500", "135835.287500", "135837.287500", "135839.287500", "135841.287500", "135843.287500", "135845.287500", "135847.287500", "135849.287500", "135851.287500", "135853.287500", "135855.287500", "135857.287500", "135859.287500", "135901.287500", "135903.287500", "135905.287500", "135907.287500", "135909.287500", "135911.287500", "135913.287500", "135915.287500", "135917.287500", "135919.287500", "135921.287500", "135923.287500", "135925.287500", "135927.287500", "135929.287500", "135931.287500", "135933.287500", "135935.287500", "135937.287500", "135939.287500", "135941.287500", "135943.287500", "135945.287500", "135947.287500", "135949.287500", "135951.287500", "135953.287500", "135955.287500", "135957.287500", "135959.287500", "140001.287500", "140003.287500", "140005.287500", "140007.287500", "140009.287500", "140011.287500", "140013.287500", "140015.287500", "140017.287500", "140019.287500", "140021.287500", "140023.287500", "140025.287500", "140027.287500", "140029.287500", "140031.287500", "140033.287500", "140035.287500", "140037.287500", "140039.287500", "140041.287500", "140043.287500", "140045.287500", "140047.287500", "140049.287500", "140051.287500", "140053.287500", "140055.287500", "140057.287500", "140059.287500", "140101.287500", "140103.287500", "140105.287500", "140107.287500", "140109.287500", "140111.287500", "140113.287500", "140115.287500", "140117.287500", "140119.287500", "140121.287500", "140123.287500", "140125.287500", "140127.287500", "140129.287500", "140131.287500", "140133.287500", "140135.287500", "140137.287500", "140139.287500", "140141.287500", "140143.287500", "140145.287500", "140147.287500", "140149.287500", "140151.287500", "140153.287500", "140155.287500", "140157.287500", "140159.287500", "140201.287500", "140203.287500", "140205.287500", "140207.287500", "140209.287500", "140211.287500", "140213.287500", "140215.287500", "140217.287500", "140219.287500", "140221.287500", "140223.287500", "140225.287500", "140227.287500", "140229.287500", "140231.287500", "140233.287500", "140235.287500", "140237.287500", "140239.287500", "140241.287500", "140243.287500", "140245.287500", "140247.287500", "140249.287500", "140251.287500", "140253.287500", "140255.287500", "140257.287500", "140259.287500", "140301.287500", "140303.287500", "140305.287500", "140307.287500", "140309.287500", "140311.287500", "140313.287500", "140315.287500", "140317.287500", "140319.287500", "140321.287500", "140323.287500", "140325.287500", "140327.287500", "140329.287500", "140331.287500", "140333.287500", "140335.287500", "140337.287500", "140339.287500", "140341.287500", "140343.287500", "140345.287500", "140347.287500", "140349.287500", "140351.287500", "140353.287500", "140355.287500", "140357.287500", "140359.287500", "140401.287500", "140403.287500"],
      "ContentTime": ["135535.732000", "135537.218000", "135539.218000", "135541.217000", "135543.217000", "135545.218000", "135547.217000", "135549.218000", "135551.217000", "135553.219000", "135555.218000", "135557.217000", "135559.217000", "135601.217000", "135603.217000", "135605.217000", "135607.217000", "135609.217000", "135611.219000", "135613.218000", "135615.217000", "135617.217000", "135619.217000", "135621.217000", "135623.218000", "135625.217000", "135627.218000", "135629.218000", "135631.218000", "135633.217000", "135635.218000", "135637.218000", "135639.217000", "135641.217000", "135643.218000", "135645.218000", "135647.219000", "135649.219000", "135651.217000", "135653.217000", "135655.218000", "135657.217000", "135659.217000", "135701.217000", "135703.218000", "135705.218000", "135707.217000", "135709.217000", "135711.218000", "135713.217000", "135715.217000", "135717.218000", "135719.217000", "135721.218000", "135723.218000", "135725.217000", "135727.217000", "135729.217000", "135731.218000", "135733.218000", "135735.218000", "135737.218000", "135739.218000", "135741.218000", "135743.217000", "135745.218000", "135747.218000", "135749.217000", "135751.218000", "135753.218000", "135755.218000", "135757.218000", "135759.218000", "135801.217000", "135803.217000", "135805.217000", "135807.217000", "135809.217000", "135811.217000", "135813.218000", "135815.219000", "135817.217000", "135819.218000", "135821.218000", "135823.217000", "135825.217000", "135827.218000", "135829.218000", "135831.218000", "135833.218000", "135835.217000", "135837.218000", "135839.217000", "135841.218000", "135843.217000", "135845.218000", "135847.218000", "135849.219000", "135851.218000", "135853.217000", "135855.217000", "135857.218000", "135859.217000", "135901.218000", "135903.218000", "135905.219000", "135907.218000", "135909.219000", "135911.217000", "135913.217000", "135915.217000", "135917.218000", "135919.218000", "135921.218000", "135923.218000", "135925.218000", "135927.217000", "135929.217000", "135931.217000", "135933.218000", "135935.217000", "135937.217000", "135939.218000", "135941.218000", "135943.219000", "135945.217000", "135947.217000", "135949.217000", "135951.218000", "135953.218000", "135955.217000", "135957.219000", "135959.218000", "140001.219000", "140003.217000", "140005.217000", "140007.218000", "140009.217000", "140011.217000", "140013.218000", "140015.219000", "140017.218000", "140019.218000", "140021.217000", "140023.217000", "140025.217000", "140027.217000", "140029.217000", "140031.217000", "140033.218000", "140035.219000", "140037.217000", "140039.217000", "140041.217000", "140043.218000", "140045.217000", "140047.218000", "140049.218000", "140051.218000", "140053.219000", "140055.218000", "140057.218000", "140059.217000", "140101.217000", "140103.218000", "140105.218000", "140107.219000", "140109.218000", "140111.219000", "140113.217000", "140115.217000", "140117.218000", "140119.218000", "140121.218000", "140123.218000", "140125.218000", "140127.218000", "140129.218000", "140131.218000", "140133.217000", "140135.218000", "140137.217000", "140139.217000", "140141.218000", "140143.219000", "140145.218000", "140147.218000", "140149.234000", "140151.218000", "140153.217000", "140155.218000", "140157.217000", "140159.218000", "140201.219000", "140203.219000", "140205.218000", "140207.217000", "140209.217000", "140211.217000", "140213.218000", "140215.217000", "140217.219000", "140219.219000", "140221.218000", "140223.217000", "140225.218000", "140227.218000", "140229.217000", "140231.217000", "140233.217000", "140235.219000", "140237.219000", "140239.218000", "140241.217000", "140243.217000", "140245.217000", "140247.218000", "140249.218000", "140251.217000", "140253.219000", "140255.218000", "140257.217000", "140259.218000", "140301.218000", "140303.217000", "140305.218000", "140307.217000", "140309.219000", "140311.219000", "140313.218000", "140315.217000", "140317.218000", "140319.217000", "140321.218000", "140323.217000", "140325.218000", "140327.219000", "140329.219000", "140331.218000", "140333.217000", "140335.217000", "140337.218000", "140339.218000", "140341.218000", "140343.218000", "140345.219000", "140347.219000", "140349.217000", "140351.218000", "140353.217000", "140355.217000", "140357.218000", "140359.217000", "140401.218000", "140403.219000", "140404.965000"],
      "InstanceCreationTime": ["135535.732000", "135537.218000", "135539.218000", "135541.217000", "135543.217000", "135545.218000", "135547.217000", "135549.218000", "135551.217000", "135553.219000", "135555.218000", "135557.217000", "135559.217000", "135601.217000", "135603.217000", "135605.217000", "135607.217000", "135609.217000", "135611.219000", "135613.218000", "135615.217000", "135617.217000", "135619.217000", "135621.217000", "135623.218000", "135625.217000", "135627.218000", "135629.218000", "135631.218000", "135633.217000", "135635.218000", "135637.218000", "135639.217000", "135641.217000", "135643.218000", "135645.218000", "135647.219000", "135649.219000", "135651.217000", "135653.217000", "135655.218000", "135657.217000", "135659.217000", "135701.217000", "135703.218000", "135705.218000", "135707.217000", "135709.217000", "135711.218000", "135713.217000", "135715.217000", "135717.218000", "135719.217000", "135721.218000", "135723.218000", "135725.217000", "135727.217000", "135729.217000", "135731.218000", "135733.218000", "135735.218000", "135737.218000", "135739.218000", "135741.218000", "135743.217000", "135745.218000", "135747.218000", "135749.217000", "135751.218000", "135753.218000", "135755.218000", "135757.218000", "135759.218000", "135801.217000", "135803.217000", "135805.217000", "135807.217000", "135809.217000", "135811.217000", "135813.218000", "135815.219000", "135817.217000", "135819.218000", "135821.218000", "135823.217000", "135825.217000", "135827.218000", "135829.218000", "135831.218000", "135833.218000", "135835.217000", "135837.218000", "135839.217000", "135841.218000", "135843.217000", "135845.218000", "135847.218000", "135849.219000", "135851.218000", "135853.217000", "135855.217000", "135857.218000", "135859.217000", "135901.218000", "135903.218000", "135905.219000", "135907.218000", "135909.219000", "135911.217000", "135913.217000", "135915.217000", "135917.218000", "135919.218000", "135921.218000", "135923.218000", "135925.218000", "135927.217000", "135929.217000", "135931.217000", "135933.218000", "135935.217000", "135937.217000", "135939.218000", "135941.218000", "135943.219000", "135945.217000", "135947.217000", "135949.217000", "135951.218000", "135953.218000", "135955.217000", "135957.219000", "135959.218000", "140001.219000", "140003.217000", "140005.217000", "140007.218000", "140009.217000", "140011.217000", "140013.218000", "140015.219000", "140017.218000", "140019.218000", "140021.217000", "140023.217000", "140025.217000", "140027.217000", "140029.217000", "140031.217000", "140033.218000", "140035.219000", "140037.217000", "140039.217000", "140041.217000", "140043.218000", "140045.217000", "140047.218000", "140049.218000", "140051.218000", "140053.219000", "140055.218000", "140057.218000", "140059.217000", "140101.217000", "140103.218000", "140105.218000", "140107.219000", "140109.218000", "140111.219000", "140113.217000", "140115.217000", "140117.218000", "140119.218000", "140121.218000", "140123.218000", "140125.218000", "140127.218000", "140129.218000", "140131.218000", "140133.217000", "140135.218000", "140137.217000", "140139.217000", "140141.218000", "140143.219000", "140145.218000", "140147.218000", "140149.234000", "140151.218000", "140153.217000", "140155.218000", "140157.217000", "140159.218000", "140201.219000", "140203.219000", "140205.218000", "140207.217000", "140209.217000", "140211.217000", "140213.218000", "140215.217000", "140217.219000", "140219.219000", "140221.218000", "140223.217000", "140225.218000", "140227.218000", "140229.217000", "140231.217000", "140233.217000", "140235.219000", "140237.219000", "140239.218000", "140241.217000", "140243.217000", "140245.217000", "140247.218000", "140249.218000", "140251.217000", "140253.219000", "140255.218000", "140257.217000", "140259.218000", "140301.218000", "140303.217000", "140305.218000", "140307.217000", "140309.219000", "140311.219000", "140313.218000", "140315.217000", "140317.218000", "140319.217000", "140321.218000", "140323.217000", "140325.218000", "140327.219000", "140329.219000", "140331.218000", "140333.217000", "140335.217000", "140337.218000", "140339.218000", "140341.218000", "140343.218000", "140345.219000", "140347.219000", "140349.217000", "140351.218000", "140353.217000", "140355.217000", "140357.218000", "140359.217000", "140401.218000", "140403.219000", "140404.965000"],
      "InstanceNumber": [1, 2, 3, 4, 5, 6, 7, 8, 9, 10, 11, 12, 13, 14, 15, 16, 17, 18, 19, 20, 21, 22, 23, 24, 25, 26, 27, 28, 29, 30, 31, 32, 33, 34, 35, 36, 37, 38, 39, 40, 41, 42, 43, 44, 45, 46, 47, 48, 49, 50, 51, 52, 53, 54, 55, 56, 57, 58, 59, 60, 61, 62, 63, 64, 65, 66, 67, 68, 69, 70, 71, 72, 73, 74, 75, 76, 77, 78, 79, 80, 81, 82, 83, 84, 85, 86, 87, 88, 89, 90, 91, 92, 93, 94, 95, 96, 97, 98, 99, 100, 101, 102, 103, 104, 105, 106, 107, 108, 109, 110, 111, 112, 113, 114, 115, 116, 117, 118, 119, 120, 121, 122, 123, 124, 125, 126, 127, 128, 129, 130, 131, 132, 133, 134, 135, 136, 137, 138, 139, 140, 141, 142, 143, 144, 145, 146, 147, 148, 149, 150, 151, 152, 153, 154, 155, 156, 157, 158, 159, 160, 161, 162, 163, 164, 165, 166, 167, 168, 169, 170, 171, 172, 173, 174, 175, 176, 177, 178, 179, 180, 181, 182, 183, 184, 185, 186, 187, 188, 189, 190, 191, 192, 193, 194, 195, 196, 197, 198, 199, 200, 201, 202, 203, 204, 205, 206, 207, 208, 209, 210, 211, 212, 213, 214, 215, 216, 217, 218, 219, 220, 221, 222, 223, 224, 225, 226, 227, 228, 229, 230, 231, 232, 233, 234, 235, 236, 237, 238, 239, 240, 241, 242, 243, 244, 245, 246, 247, 248, 249, 250, 251, 252, 253, 254, 255, 256],
      "LargestImagePixelValue": [3009, 2963, 2945, 2959, 2937, 2900, 2888, 2924, 2911, 2929, 2927, 2973, 2977, 2918, 2903, 2957, 2940, 2948, 2946, 2957, 2935, 2930, 2970, 2941, 2968, 2912, 2955, 2950, 2955, 2912, 2971, 2920, 2970, 2959, 2938, 2949, 2941, 2966, 2928, 2959, 2956, 2931, 2935, 2916, 2957, 2947, 2961, 2977, 2945, 2950, 2962, 2964, 2934, 2944, 2930, 2899, 2911, 2945, 2946, 2961, 2927, 2949, 2939, 2954, 2935, 2944, 2918, 2963, 2948, 2969, 2948, 2968, 2957, 2935, 2932, 2920, 2964, 2969, 2935, 2974, 2949, 2975, 2972, 2943, 2932, 2937, 2952, 2937, 2948, 2955, 2965, 3006, 2957, 2965, 2903, 2921, 2962, 2949, 2960, 2973, 2986, 2961, 2990, 2966, 2963, 2962, 2948, 2934, 2916, 2926, 2969, 2990, 2974, 2978, 2935, 2965, 2949, 2951, 2923, 2933, 2943, 2918, 2928, 3006, 2916, 2954, 2924, 2930, 2902, 2910, 2924, 2941, 2963, 2959, 2949, 2919, 2934, 2933, 2918, 2927, 2919, 2933, 2923, 2953, 2945, 2971, 2936, 2934, 2968, 2918, 2935, 2945, 2935, 2965, 2916, 2924, 2892, 2895, 2929, 2912, 2924, 2912, 2941, 2899, 2933, 2892, 2898, 2905, 2943, 2950, 2915, 2917, 2896, 2935, 2955, 2928, 2890, 2916, 2938, 2924, 2922, 2908, 2889, 2959, 2925, 2916, 2930, 2898, 2890, 3016, 2903, 2887, 2914, 2942, 2966, 2940, 2950, 2937, 2961, 2869, 2900, 2934, 2900, 2982, 2914, 2901, 2980, 2940, 3416, 2948, 3093, 2876, 2932, 2904, 2913, 2937, 2949, 2937, 2951, 2903, 2904, 2921, 2924, 2937, 2906, 2904, 2935, 2946, 2935, 2921, 2946, 2910, 2895, 2912, 2929, 2902, 2904, 2894, 2940, 2928, 2931, 2957, 2919, 2925, 2913, 2906, 2901, 2930, 2876, 2875, 2900, 2911, 2904, 2896, 2914, 2930],
      "WindowCenter": [820.0, 818.0, 818.0, 818.0, 817.0, 816.0, 817.0, 819.0, 819.0, 819.0, 819.0, 821.0, 820.0, 818.0, 818.0, 820.0, 821.0, 819.0, 818.0, 818.0, 818.0, 819.0, 819.0, 819.0, 818.0, 818.0, 820.0, 820.0, 818.0, 818.0, 820.0, 819.0, 819.0, 818.0, 818.0, 819.0, 820.0, 821.0, 820.0, 818.0, 818.0, 819.0, 819.0, 818.0, 817.0, 817.0, 818.0, 819.0, 819.0, 819.0, 819.0, 820.0, 820.0, 818.0, 817.0, 818.0, 818.0, 817.0, 817.0, 817.0, 818.0, 819.0, 818.0, 818.0, 818.0, 818.0, 818.0, 817.0, 817.0, 817.0, 818.0, 819.0, 820.0, 819.0, 818.0, 819.0, 820.0, 819.0, 817.0, 817.0, 817.0, 818.0, 819.0, 818.0, 818.0, 819.0, 820.0, 820.0, 818.0, 818.0, 819.0, 819.0, 818.0, 817.0, 817.0, 817.0, 818.0, 819.0, 819.0, 820.0, 820.0, 819.0, 819.0, 819.0, 819.0, 819.0, 819.0, 819.0, 820.0, 819.0, 820.0, 821.0, 819.0, 819.0, 819.0, 820.0, 819.0, 819.0, 818.0, 819.0, 820.0, 819.0, 819.0, 820.0, 820.0, 821.0, 820.0, 820.0, 819.0, 817.0, 818.0, 819.0, 820.0, 819.0, 818.0, 817.0, 818.0, 819.0, 817.0, 816.0, 815.0, 816.0, 817.0, 820.0, 821.0, 820.0, 818.0, 816.0, 816.0, 816.0, 816.0, 816.0, 815.0, 816.0, 817.0, 818.0, 817.0, 817.0, 817.0, 819.0, 818.0, 818.0, 818.0, 817.0, 817.0, 816.0, 818.0, 820.0, 819.0, 818.0, 817.0, 818.0, 819.0, 820.0, 819.0, 817.0, 817.0, 817.0, 819.0, 819.0, 818.0, 817.0, 816.0, 818.0, 818.0, 817.0, 817.0, 818.0, 817.0, 817.0, 816.0, 815.0, 816.0, 818.0, 819.0, 818.0, 818.0, 817.0, 817.0, 817.0, 819.0, 820.0, 819.0, 818.0, 818.0, 818.0, 818.0, 818.0, 823.0, 820.0, 820.0, 817.0, 818.0, 818.0, 819.0, 819.0, 819.0, 817.0, 817.0, 817.0, 817.0, 819.0, 819.0, 818.0, 817.0, 818.0, 818.0, 817.0, 817.0, 816.0, 818.0, 819.0, 818.0, 817.0, 817.0, 818.0, 818.0, 817.0, 817.0, 817.0, 818.0, 817.0, 817.0, 819.0, 818.0, 817.0, 816.0, 818.0, 818.0, 818.0, 816.0, 816.0, 816.0, 817.0, 818.0, 816.0],
      "WindowWidth": [1750.0, 1746.0, 1746.0, 1745.0, 1743.0, 1741.0, 1742.0, 1746.0, 1747.0, 1747.0, 1749.0, 1752.0, 1750.0, 1745.0, 1745.0, 1751.0, 1752.0, 1748.0, 1746.0, 1746.0, 1747.0, 1748.0, 1749.0, 1747.0, 1745.0, 1747.0, 1751.0, 1750.0, 1746.0, 1746.0, 1751.0, 1749.0, 1747.0, 1746.0, 1747.0, 1748.0, 1751.0, 1753.0, 1750.0, 1746.0, 1746.0, 1748.0, 1748.0, 1745.0, 1743.0, 1743.0, 1746.0, 1749.0, 1749.0, 1747.0, 1747.0, 1752.0, 1749.0, 1745.0, 1744.0, 1744.0, 1744.0, 1744.0, 1744.0, 1744.0, 1746.0, 1748.0, 1747.0, 1745.0, 1744.0, 1745.0, 1744.0, 1744.0, 1742.0, 1744.0, 1745.0, 1748.0, 1749.0, 1747.0, 1746.0, 1748.0, 1751.0, 1747.0, 1743.0, 1742.0, 1743.0, 1746.0, 1747.0, 1745.0, 1746.0, 1748.0, 1751.0, 1750.0, 1746.0, 1746.0, 1747.0, 1748.0, 1745.0, 1744.0, 1744.0, 1744.0, 1745.0, 1747.0, 1749.0, 1752.0, 1750.0, 1749.0, 1748.0, 1748.0, 1747.0, 1747.0, 1747.0, 1748.0, 1751.0, 1748.0, 1751.0, 1752.0, 1749.0, 1749.0, 1748.0, 1750.0, 1748.0, 1746.0, 1745.0, 1748.0, 1750.0, 1748.0, 1747.0, 1750.0, 1750.0, 1752.0, 1750.0, 1750.0, 1746.0, 1743.0, 1745.0, 1748.0, 1749.0, 1748.0, 1745.0, 1744.0, 1746.0, 1747.0, 1742.0, 1739.0, 1738.0, 1740.0, 1743.0, 1751.0, 1752.0, 1750.0, 1744.0, 1742.0, 1741.0, 1741.0, 1741.0, 1740.0, 1739.0, 1741.0, 1742.0, 1744.0, 1743.0, 1742.0, 1743.0, 1747.0, 1745.0, 1744.0, 1746.0, 1743.0, 1742.0, 1742.0, 1745.0, 1750.0, 1749.0, 1746.0, 1743.0, 1746.0, 1748.0, 1750.0, 1746.0, 1743.0, 1742.0, 1743.0, 1747.0, 1747.0, 1746.0, 1743.0, 1741.0, 1745.0, 1745.0, 1744.0, 1743.0, 1744.0, 1743.0, 1743.0, 1739.0, 1738.0, 1741.0, 1747.0, 1748.0, 1745.0, 1744.0, 1744.0, 1744.0, 1742.0, 1747.0, 1751.0, 1748.0, 1746.0, 1745.0, 1744.0, 1746.0, 1746.0, 1758.0, 1749.0, 1750.0, 1744.0, 1745.0, 1745.0, 1748.0, 1748.0, 1747.0, 1743.0, 1742.0, 1742.0, 1744.0, 1747.0, 1748.0, 1745.0, 1741.0, 1744.0, 1746.0, 1743.0, 1742.0, 1742.0, 1745.0, 1747.0, 1746.0, 1742.0, 1742.0, 1745.0, 1745.0, 1742.0, 1743.0, 1743.0, 1744.0, 1743.0, 1743.0, 1746.0, 1745.0, 1742.0, 1740.0, 1744.0, 1745.0, 1743.0, 1740.0, 1740.0, 1741.0, 1743.0, 1743.0, 1740.0]
    },
    "slices": {}
  }
}