{
 "AcquisitionMatrixPE": 100,
 "AcquisitionNumber": 1,
 "AcquisitionTime": "13:45:55.495000",
 "BandwidthPerPixelPhaseEncode": 18.519,
 "BaseResolution": 100,
 "BodyPartExamined": "BRAIN",
 "ConsistencyInfo": "N4_VE11C_LATEST_20160120",
 "ConversionSoftware": "dcm2niix",
 "ConversionSoftwareVersion": "v1.0.20180622 GCC4.9.2",
 "DerivedVendorReportedEchoSpacing": 0.000539986,
 "DeviceSerialNumber": "166078",
 "DwellTime": 2.1e-06,
 "EchoTime": 0.034,
 "EchoTrainLength": 100,
 "EffectiveEchoSpacing": 0.000539986,
 "FlipAngle": 90,
 "ImageOrientationPatientDICOM": [
  1,
  0,
  0,
  0,
  0.959314,
  -0.282341
 ],
 "ImageType": [
  "ORIGINAL",
  "PRIMARY",
  "M",
  "ND",
  "MOSAIC"
 ],
 "InPlanePhaseEncodingDirectionDICOM": "COL",
 "InstitutionAddress": "Street_StreetNo_Bei_Jing_District_CN_ZIP",
 "InstitutionName": "BeiJing_Normal_University",
 "InstitutionalDepartmentName": "Department",
 "MRAcquisitionType": "2D",
 "MagneticFieldStrength": 3,
 "Manufacturer": "Siemens",
 "ManufacturersModelName": "Prisma",
 "Modality": "MR",
 "MultibandAccelerationFactor": 3,
 "PartialFourier": 1,
 "PatientPosition": "HFS",
 "PercentPhaseFOV": 100,
 "PhaseEncodingDirection": "j-",
 "PhaseEncodingSteps": 100,
 "PhaseResolution": 1,
 "PixelBandwidth": 2380,
 "ProcedureStepDescription": "BNU_P2018_64CH_Zhen.ZongLei",
 "ProtocolName": "bold_100x100_s3_2x2x2_static_256",
 "PulseSequenceDetails": "%SiemensSeq%_ep2d_bold",
 "ReceiveCoilActiveElements": "HC1-7;NC1",
 "ReceiveCoilName": "HeadNeck_64",
 "ReconMatrixPE": 100,
 "RepetitionTime": 2,
 "SAR": 0.0858044,
 "ScanOptions": "FS",
 "ScanningSequence": "EP",
 "SequenceName": "_epfid2d1_100",
 "SequenceVariant": "SK",
 "SeriesDescription": "bold_100x100_s3_2x2x2_static_256",
 "SeriesNumber": 5,
 "ShimSetting": [
  -5458,
  -11481,
  -1288,
  427,
  2,
  -166,
  -130,
  77
 ],
 "SliceThickness": 2,
 "SliceTiming": [
  1.485,
  0,
  0.99,
  0.0825,
  1.0725,
  0.165,
  1.155,
  0.2475,
  1.2375,
  0.33,
  1.32,
  0.4125,
  1.4025,
  0.5775,
  1.5675,
  0.66,
  1.6475,
  0.7425,
  1.73,
  0.825,
  1.8125,
  0.9075,
  1.895,
  0.495,
  1.485,
  0,
  0.99,
  0.0825,
  1.0725,
  0.165,
  1.155,
  0.2475,
  1.2375,
  0.33,
  1.32,
  0.4125,
  1.4025,
  0.5775,
  1.5675,
  0.66,
  1.6475,
  0.7425,
  1.73,
  0.825,
  1.8125,
  0.9075,
  1.895,
  0.495,
  1.485,
  0,
  0.99,
  0.0825,
  1.0725,
  0.165,
  1.155,
  0.2475,
  1.2375,
  0.33,
  1.32,
  0.4125,
  1.4025,
  0.5775,
  1.5675,
  0.66,
  1.6475,
  0.7425,
  1.73,
  0.825,
  1.8125,
  0.9075,
  1.895,
  0.495
 ],
 "SoftwareVersions": "syngo_MR_E11",
 "SpacingBetweenSlices": 2,
 "StationName": "AWP166078",
 "TaskName": "imagenet",
 "TotalReadoutTime": 0.0534586,
 "TxRefAmp": 233.016,
 "dcmmeta_affine": [
  [
   -2.0,
   0.0,
   0.0,
   100.0
  ],
  [
   0.0,
   1.9186279773712158,
   -0.5646828413009644,
   -72.60266876220703
  ],
  [
   0.0,
   0.5646829009056091,
   1.9186278581619263,
   -108.11810302734375
  ],
  [
   0.0,
   0.0,
   0.0,
   1.0
  ]
 ],
 "dcmmeta_reorient_transform": [
  [
   0.0,
   -1.0,
   0.0,
   99.0
  ],
  [
   1.0,
   0.0,
   0.0,
   0.0
  ],
  [
   0.0,
   0.0,
   1.0,
   0.0
  ],
  [
   0.0,
   0.0,
   0.0,
   1.0
  ]
 ],
 "dcmmeta_shape": [
  100,
  100,
  72,
  256
 ],
 "dcmmeta_slice_dim": 2,
 "dcmmeta_version": 0.6,
 "global": {
  "const": {
   "AcquisitionMatrix": [
    100,
    0,
    0,
    100
   ],
   "AngioFlag": "N",
   "BitsAllocated": 16,
   "BitsStored": 12,
   "BodyPartExamined": "BRAIN",
   "Columns": 900,
   "EchoNumbers": 1,
   "EchoTime": 34.0,
   "EchoTrainLength": 100,
   "FlipAngle": 90.0,
   "HighBit": 11,
   "ImageOrientationPatient": [
    1.0,
    0.0,
    0.0,
    0.0,
    0.95931397909575,
    -0.282341441364
   ],
   "ImagePositionPatient": [
    -900.0,
    -884.79268021572,
    173.65865831154
   ],
   "ImageType": [
    "ORIGINAL",
    "PRIMARY",
    "M",
    "ND",
    "MOSAIC"
   ],
   "ImagedNucleus": "1H",
   "ImagingFrequency": 123.257787,
   "InPlanePhaseEncodingDirection": "COL",
   "MRAcquisitionType": "2D",
   "MagneticFieldStrength": 3.0,
   "Manufacturer": "SIEMENS",
   "ManufacturerModelName": "Prisma",
   "Modality": "MR",
   "NumberOfAverages": 1.0,
   "NumberOfPhaseEncodingSteps": 100,
   "PercentPhaseFieldOfView": 100.0,
   "PercentSampling": 100.0,
   "PerformedProcedureStepStartTime": "132301.583000",
   "PhotometricInterpretation": "MONOCHROME2",
   "PixelBandwidth": 2380.0,
   "PixelRepresentation": 0,
   "PixelSpacing": [
    2.0,
    2.0
   ],
   "ProtocolName": "bold_100x100_s3_2x2x2_static_256",
   "RepetitionTime": 2000.0,
   "Rows": 900,
   "SAR": 0.08580442230011,
   "SamplesPerPixel": 1,
   "ScanOptions": "FS",
   "ScanningSequence": "EP",
   "SequenceName": "*epfid2d1_100",
   "SequenceVariant": "SK",
   "SeriesDescription": "bold_100x100_s3_2x2x2_static_256",
   "SeriesNumber": 5,
   "SeriesTime": "134558.545000",
   "SliceLocation": -83.220462131106,
   "SliceThickness": 2.0,
   "SmallestImagePixelValue": 0,
   "SoftwareVersions": "syngo MR E11",
   "SpacingBetweenSlices": 1.9999999420059,
   "SpecificCharacterSet": "ISO_IR 100",
   "StudyID": "1",
   "StudyTime": "132301.505000",
   "TransmitCoilName": "Body",
   "VariableFlipAngleFlag": "N",
   "WindowCenterWidthExplanation": "Algo1",
   "dBdt": 0.0
  },
  "slices": {}
 },
 "time": {
  "samples": {
   "AcquisitionNumber": [
    1,
    2,
    3,
    4,
    5,
    6,
    7,
    8,
    9,
    10,
    11,
    12,
    13,
    14,
    15,
    16,
    17,
    18,
    19,
    20,
    21,
    22,
    23,
    24,
    25,
    26,
    27,
    28,
    29,
    30,
    31,
    32,
    33,
    34,
    35,
    36,
    37,
    38,
    39,
    40,
    41,
    42,
    43,
    44,
    45,
    46,
    47,
    48,
    49,
    50,
    51,
    52,
    53,
    54,
    55,
    56,
    57,
    58,
    59,
    60,
    61,
    62,
    63,
    64,
    65,
    66,
    67,
    68,
    69,
    70,
    71,
    72,
    73,
    74,
    75,
    76,
    77,
    78,
    79,
    80,
    81,
    82,
    83,
    84,
    85,
    86,
    87,
    88,
    89,
    90,
    91,
    92,
    93,
    94,
    95,
    96,
    97,
    98,
    99,
    100,
    101,
    102,
    103,
    104,
    105,
    106,
    107,
    108,
    109,
    110,
    111,
    112,
    113,
    114,
    115,
    116,
    117,
    118,
    119,
    120,
    121,
    122,
    123,
    124,
    125,
    126,
    127,
    128,
    129,
    130,
    131,
    132,
    133,
    134,
    135,
    136,
    137,
    138,
    139,
    140,
    141,
    142,
    143,
    144,
    145,
    146,
    147,
    148,
    149,
    150,
    151,
    152,
    153,
    154,
    155,
    156,
    157,
    158,
    159,
    160,
    161,
    162,
    163,
    164,
    165,
    166,
    167,
    168,
    169,
    170,
    171,
    172,
    173,
    174,
    175,
    176,
    177,
    178,
    179,
    180,
    181,
    182,
    183,
    184,
    185,
    186,
    187,
    188,
    189,
    190,
    191,
    192,
    193,
    194,
    195,
    196,
    197,
    198,
    199,
    200,
    201,
    202,
    203,
    204,
    205,
    206,
    207,
    208,
    209,
    210,
    211,
    212,
    213,
    214,
    215,
    216,
    217,
    218,
    219,
    220,
    221,
    222,
    223,
    224,
    225,
    226,
    227,
    228,
    229,
    230,
    231,
    232,
    233,
    234,
    235,
    236,
    237,
    238,
    239,
    240,
    241,
    242,
    243,
    244,
    245,
    246,
    247,
    248,
    249,
    250,
    251,
    252,
    253,
    254,
    255,
    256
   ],
   "AcquisitionTime": [
    "134555.495000",
    "134557.495000",
    "134559.495000",
    "134601.495000",
    "134603.495000",
    "134605.495000",
    "134607.495000",
    "134609.495000",
    "134611.495000",
    "134613.495000",
    "134615.495000",
    "134617.495000",
    "134619.495000",
    "134621.495000",
    "134623.495000",
    "134625.495000",
    "134627.495000",
    "134629.495000",
    "134631.495000",
    "134633.495000",
    "134635.495000",
    "134637.495000",
    "134639.495000",
    "134641.495000",
    "134643.495000",
    "134645.495000",
    "134647.495000",
    "134649.495000",
    "134651.495000",
    "134653.495000",
    "134655.495000",
    "134657.495000",
    "134659.495000",
    "134701.495000",
    "134703.495000",
    "134705.495000",
    "134707.495000",
    "134709.495000",
    "134711.495000",
    "134713.495000",
    "134715.495000",
    "134717.495000",
    "134719.495000",
    "134721.495000",
    "134723.495000",
    "134725.495000",
    "134727.495000",
    "134729.495000",
    "134731.495000",
    "134733.495000",
    "134735.495000",
    "134737.495000",
    "134739.495000",
    "134741.495000",
    "134743.495000",
    "134745.495000",
    "134747.495000",
    "134749.495000",
    "134751.495000",
    "134753.495000",
    "134755.495000",
    "134757.495000",
    "134759.495000",
    "134801.495000",
    "134803.495000",
    "134805.495000",
    "134807.495000",
    "134809.495000",
    "134811.495000",
    "134813.495000",
    "134815.495000",
    "134817.495000",
    "134819.495000",
    "134821.495000",
    "134823.495000",
    "134825.495000",
    "134827.495000",
    "134829.495000",
    "134831.495000",
    "134833.495000",
    "134835.495000",
    "134837.495000",
    "134839.495000",
    "134841.495000",
    "134843.495000",
    "134845.495000",
    "134847.495000",
    "134849.495000",
    "134851.495000",
    "134853.495000",
    "134855.495000",
    "134857.495000",
    "134859.495000",
    "134901.495000",
    "134903.495000",
    "134905.495000",
    "134907.495000",
    "134909.495000",
    "134911.495000",
    "134913.495000",
    "134915.495000",
    "134917.495000",
    "134919.495000",
    "134921.495000",
    "134923.495000",
    "134925.495000",
    "134927.495000",
    "134929.495000",
    "134931.495000",
    "134933.495000",
    "134935.495000",
    "134937.495000",
    "134939.495000",
    "134941.495000",
    "134943.495000",
    "134945.495000",
    "134947.495000",
    "134949.495000",
    "134951.495000",
    "134953.495000",
    "134955.495000",
    "134957.495000",
    "134959.495000",
    "135001.495000",
    "135003.495000",
    "135005.495000",
    "135007.495000",
    "135009.495000",
    "135011.495000",
    "135013.495000",
    "135015.495000",
    "135017.495000",
    "135019.495000",
    "135021.495000",
    "135023.495000",
    "135025.495000",
    "135027.495000",
    "135029.495000",
    "135031.495000",
    "135033.495000",
    "135035.495000",
    "135037.495000",
    "135039.495000",
    "135041.495000",
    "135043.495000",
    "135045.495000",
    "135047.495000",
    "135049.495000",
    "135051.495000",
    "135053.495000",
    "135055.495000",
    "135057.495000",
    "135059.495000",
    "135101.495000",
    "135103.495000",
    "135105.495000",
    "135107.495000",
    "135109.495000",
    "135111.495000",
    "135113.495000",
    "135115.495000",
    "135117.495000",
    "135119.495000",
    "135121.495000",
    "135123.495000",
    "135125.495000",
    "135127.495000",
    "135129.495000",
    "135131.495000",
    "135133.495000",
    "135135.495000",
    "135137.495000",
    "135139.495000",
    "135141.495000",
    "135143.495000",
    "135145.495000",
    "135147.495000",
    "135149.495000",
    "135151.495000",
    "135153.495000",
    "135155.495000",
    "135157.495000",
    "135159.495000",
    "135201.495000",
    "135203.495000",
    "135205.495000",
    "135207.495000",
    "135209.495000",
    "135211.495000",
    "135213.495000",
    "135215.495000",
    "135217.495000",
    "135219.495000",
    "135221.495000",
    "135223.495000",
    "135225.495000",
    "135227.495000",
    "135229.495000",
    "135231.495000",
    "135233.495000",
    "135235.495000",
    "135237.495000",
    "135239.495000",
    "135241.495000",
    "135243.495000",
    "135245.495000",
    "135247.495000",
    "135249.495000",
    "135251.495000",
    "135253.495000",
    "135255.495000",
    "135257.495000",
    "135259.495000",
    "135301.495000",
    "135303.495000",
    "135305.495000",
    "135307.495000",
    "135309.495000",
    "135311.495000",
    "135313.495000",
    "135315.495000",
    "135317.495000",
    "135319.495000",
    "135321.495000",
    "135323.495000",
    "135325.495000",
    "135327.495000",
    "135329.495000",
    "135331.495000",
    "135333.495000",
    "135335.495000",
    "135337.495000",
    "135339.495000",
    "135341.495000",
    "135343.495000",
    "135345.495000",
    "135347.495000",
    "135349.495000",
    "135351.495000",
    "135353.495000",
    "135355.495000",
    "135357.495000",
    "135359.495000",
    "135401.495000",
    "135403.495000",
    "135405.495000",
    "135407.495000",
    "135409.495000",
    "135411.495000",
    "135413.495000",
    "135415.495000",
    "135417.495000",
    "135419.495000",
    "135421.495000",
    "135423.495000",
    "135425.495000"
   ],
   "ContentTime": [
    "134558.548000",
    "134559.543000",
    "134602.044000",
    "134604.044000",
    "134605.543000",
    "134608.044000",
    "134609.544000",
    "134612.044000",
    "134614.044000",
    "134615.544000",
    "134617.544000",
    "134619.543000",
    "134622.043000",
    "134624.043000",
    "134625.543000",
    "134628.043000",
    "134630.043000",
    "134631.543000",
    "134634.043000",
    "134635.544000",
    "134637.543000",
    "134639.543000",
    "134642.043000",
    "134644.043000",
    "134645.544000",
    "134647.543000",
    "134649.544000",
    "134651.544000",
    "134653.543000",
    "134655.544000",
    "134657.544000",
    "134659.544000",
    "134702.043000",
    "134704.043000",
    "134706.043000",
    "134707.544000",
    "134709.544000",
    "134711.543000",
    "134714.043000",
    "134716.044000",
    "134717.543000",
    "134720.044000",
    "134722.043000",
    "134723.544000",
    "134725.545000",
    "134727.543000",
    "134730.043000",
    "134732.044000",
    "134733.544000",
    "134735.543000",
    "134737.544000",
    "134739.543000",
    "134742.043000",
    "134744.043000",
    "134746.044000",
    "134747.543000",
    "134749.544000",
    "134752.044000",
    "134753.543000",
    "134755.544000",
    "134758.044000",
    "134759.543000",
    "134802.044000",
    "134804.043000",
    "134805.544000",
    "134807.543000",
    "134810.044000",
    "134811.544000",
    "134814.044000",
    "134815.544000",
    "134817.544000",
    "134820.043000",
    "134821.543000",
    "134823.544000",
    "134826.044000",
    "134827.544000",
    "134830.043000",
    "134831.544000",
    "134834.043000",
    "134835.545000",
    "134838.044000",
    "134839.544000",
    "134842.044000",
    "134844.044000",
    "134845.544000",
    "134847.543000",
    "134849.543000",
    "134851.544000",
    "134854.044000",
    "134856.044000",
    "134857.544000",
    "134859.543000",
    "134902.043000",
    "134903.544000",
    "134905.543000",
    "134908.043000",
    "134909.544000",
    "134912.044000",
    "134914.043000",
    "134915.543000",
    "134917.544000",
    "134919.544000",
    "134922.044000",
    "134923.544000",
    "134926.044000",
    "134927.544000",
    "134930.044000",
    "134932.043000",
    "134934.044000",
    "134936.044000",
    "134938.044000",
    "134939.544000",
    "134941.544000",
    "134943.543000",
    "134945.544000",
    "134947.544000",
    "134949.543000",
    "134952.044000",
    "134954.043000",
    "134955.543000",
    "134957.544000",
    "134959.544000",
    "135002.043000",
    "135003.544000",
    "135005.543000",
    "135008.044000",
    "135009.544000",
    "135011.543000",
    "135013.544000",
    "135015.543000",
    "135017.543000",
    "135019.544000",
    "135021.544000",
    "135023.544000",
    "135025.544000",
    "135028.044000",
    "135030.044000",
    "135032.044000",
    "135033.544000",
    "135035.544000",
    "135037.544000",
    "135039.543000",
    "135042.043000",
    "135043.544000",
    "135045.544000",
    "135047.544000",
    "135049.544000",
    "135052.044000",
    "135054.044000",
    "135056.044000",
    "135057.544000",
    "135059.543000",
    "135101.544000",
    "135103.544000",
    "135106.044000",
    "135107.544000",
    "135110.044000",
    "135112.043000",
    "135113.545000",
    "135115.544000",
    "135118.043000",
    "135119.545000",
    "135122.043000",
    "135123.544000",
    "135126.044000",
    "135128.043000",
    "135129.543000",
    "135131.544000",
    "135134.044000",
    "135136.044000",
    "135138.044000",
    "135140.044000",
    "135142.044000",
    "135143.544000",
    "135145.544000",
    "135148.045000",
    "135150.055000",
    "135151.543000",
    "135153.543000",
    "135155.543000",
    "135158.044000",
    "135159.544000",
    "135201.544000",
    "135203.543000",
    "135205.545000",
    "135208.043000",
    "135209.544000",
    "135212.043000",
    "135214.043000",
    "135216.044000",
    "135217.543000",
    "135219.543000",
    "135222.043000",
    "135224.044000",
    "135226.044000",
    "135227.544000",
    "135230.044000",
    "135232.044000",
    "135234.044000",
    "135235.543000",
    "135237.543000",
    "135240.044000",
    "135242.043000",
    "135244.043000",
    "135245.543000",
    "135248.044000",
    "135249.544000",
    "135251.544000",
    "135253.544000",
    "135256.044000",
    "135258.045000",
    "135259.543000",
    "135301.544000",
    "135303.544000",
    "135305.543000",
    "135307.543000",
    "135310.043000",
    "135311.544000",
    "135313.544000",
    "135315.545000",
    "135317.544000",
    "135319.543000",
    "135322.044000",
    "135323.544000",
    "135326.044000",
    "135328.044000",
    "135330.044000",
    "135332.044000",
    "135333.543000",
    "135336.043000",
    "135337.543000",
    "135339.544000",
    "135341.544000",
    "135344.043000",
    "135346.043000",
    "135348.044000",
    "135349.543000",
    "135351.544000",
    "135353.544000",
    "135355.543000",
    "135357.543000",
    "135400.043000",
    "135401.544000",
    "135403.544000",
    "135405.544000",
    "135408.044000",
    "135409.543000",
    "135411.544000",
    "135414.044000",
    "135415.543000",
    "135418.044000",
    "135419.544000",
    "135421.544000",
    "135424.044000",
    "135425.543000",
    "135427.488000"
   ],
   "InstanceCreationTime": [
    "134558.548000",
    "134559.543000",
    "134602.044000",
    "134604.044000",
    "134605.543000",
    "134608.044000",
    "134609.544000",
    "134612.044000",
    "134614.044000",
    "134615.544000",
    "134617.544000",
    "134619.543000",
    "134622.043000",
    "134624.043000",
    "134625.543000",
    "134628.043000",
    "134630.043000",
    "134631.543000",
    "134634.043000",
    "134635.544000",
    "134637.543000",
    "134639.543000",
    "134642.043000",
    "134644.043000",
    "134645.544000",
    "134647.543000",
    "134649.544000",
    "134651.544000",
    "134653.543000",
    "134655.544000",
    "134657.544000",
    "134659.544000",
    "134702.043000",
    "134704.043000",
    "134706.043000",
    "134707.544000",
    "134709.544000",
    "134711.543000",
    "134714.043000",
    "134716.044000",
    "134717.543000",
    "134720.044000",
    "134722.043000",
    "134723.544000",
    "134725.545000",
    "134727.543000",
    "134730.043000",
    "134732.044000",
    "134733.544000",
    "134735.543000",
    "134737.544000",
    "134739.543000",
    "134742.043000",
    "134744.043000",
    "134746.044000",
    "134747.543000",
    "134749.544000",
    "134752.044000",
    "134753.543000",
    "134755.544000",
    "134758.044000",
    "134759.543000",
    "134802.044000",
    "134804.043000",
    "134805.544000",
    "134807.543000",
    "134810.044000",
    "134811.544000",
    "134814.044000",
    "134815.544000",
    "134817.544000",
    "134820.043000",
    "134821.543000",
    "134823.544000",
    "134826.044000",
    "134827.544000",
    "134830.043000",
    "134831.544000",
    "134834.043000",
    "134835.545000",
    "134838.044000",
    "134839.544000",
    "134842.044000",
    "134844.044000",
    "134845.544000",
    "134847.543000",
    "134849.543000",
    "134851.544000",
    "134854.044000",
    "134856.044000",
    "134857.544000",
    "134859.543000",
    "134902.043000",
    "134903.544000",
    "134905.543000",
    "134908.043000",
    "134909.544000",
    "134912.044000",
    "134914.043000",
    "134915.543000",
    "134917.544000",
    "134919.544000",
    "134922.044000",
    "134923.544000",
    "134926.044000",
    "134927.544000",
    "134930.044000",
    "134932.043000",
    "134934.044000",
    "134936.044000",
    "134938.044000",
    "134939.544000",
    "134941.544000",
    "134943.543000",
    "134945.544000",
    "134947.544000",
    "134949.543000",
    "134952.044000",
    "134954.043000",
    "134955.543000",
    "134957.544000",
    "134959.544000",
    "135002.043000",
    "135003.544000",
    "135005.543000",
    "135008.044000",
    "135009.544000",
    "135011.543000",
    "135013.544000",
    "135015.543000",
    "135017.543000",
    "135019.544000",
    "135021.544000",
    "135023.544000",
    "135025.544000",
    "135028.044000",
    "135030.044000",
    "135032.044000",
    "135033.544000",
    "135035.544000",
    "135037.544000",
    "135039.543000",
    "135042.043000",
    "135043.544000",
    "135045.544000",
    "135047.544000",
    "135049.544000",
    "135052.044000",
    "135054.044000",
    "135056.044000",
    "135057.544000",
    "135059.543000",
    "135101.544000",
    "135103.544000",
    "135106.044000",
    "135107.544000",
    "135110.044000",
    "135112.043000",
    "135113.545000",
    "135115.544000",
    "135118.043000",
    "135119.545000",
    "135122.043000",
    "135123.544000",
    "135126.044000",
    "135128.043000",
    "135129.543000",
    "135131.544000",
    "135134.044000",
    "135136.044000",
    "135138.044000",
    "135140.044000",
    "135142.044000",
    "135143.544000",
    "135145.544000",
    "135148.045000",
    "135150.055000",
    "135151.543000",
    "135153.543000",
    "135155.543000",
    "135158.044000",
    "135159.544000",
    "135201.544000",
    "135203.543000",
    "135205.545000",
    "135208.043000",
    "135209.544000",
    "135212.043000",
    "135214.043000",
    "135216.044000",
    "135217.543000",
    "135219.543000",
    "135222.043000",
    "135224.044000",
    "135226.044000",
    "135227.544000",
    "135230.044000",
    "135232.044000",
    "135234.044000",
    "135235.543000",
    "135237.543000",
    "135240.044000",
    "135242.043000",
    "135244.043000",
    "135245.543000",
    "135248.044000",
    "135249.544000",
    "135251.544000",
    "135253.544000",
    "135256.044000",
    "135258.045000",
    "135259.543000",
    "135301.544000",
    "135303.544000",
    "135305.543000",
    "135307.543000",
    "135310.043000",
    "135311.544000",
    "135313.544000",
    "135315.545000",
    "135317.544000",
    "135319.543000",
    "135322.044000",
    "135323.544000",
    "135326.044000",
    "135328.044000",
    "135330.044000",
    "135332.044000",
    "135333.543000",
    "135336.043000",
    "135337.543000",
    "135339.544000",
    "135341.544000",
    "135344.043000",
    "135346.043000",
    "135348.044000",
    "135349.543000",
    "135351.544000",
    "135353.544000",
    "135355.543000",
    "135357.543000",
    "135400.043000",
    "135401.544000",
    "135403.544000",
    "135405.544000",
    "135408.044000",
    "135409.543000",
    "135411.544000",
    "135414.044000",
    "135415.543000",
    "135418.044000",
    "135419.544000",
    "135421.544000",
    "135424.044000",
    "135425.543000",
    "135427.488000"
   ],
   "InstanceNumber": [
    1,
    2,
    3,
    4,
    5,
    6,
    7,
    8,
    9,
    10,
    11,
    12,
    13,
    14,
    15,
    16,
    17,
    18,
    19,
    20,
    21,
    22,
    23,
    24,
    25,
    26,
    27,
    28,
    29,
    30,
    31,
    32,
    33,
    34,
    35,
    36,
    37,
    38,
    39,
    40,
    41,
    42,
    43,
    44,
    45,
    46,
    47,
    48,
    49,
    50,
    51,
    52,
    53,
    54,
    55,
    56,
    57,
    58,
    59,
    60,
    61,
    62,
    63,
    64,
    65,
    66,
    67,
    68,
    69,
    70,
    71,
    72,
    73,
    74,
    75,
    76,
    77,
    78,
    79,
    80,
    81,
    82,
    83,
    84,
    85,
    86,
    87,
    88,
    89,
    90,
    91,
    92,
    93,
    94,
    95,
    96,
    97,
    98,
    99,
    100,
    101,
    102,
    103,
    104,
    105,
    106,
    107,
    108,
    109,
    110,
    111,
    112,
    113,
    114,
    115,
    116,
    117,
    118,
    119,
    120,
    121,
    122,
    123,
    124,
    125,
    126,
    127,
    128,
    129,
    130,
    131,
    132,
    133,
    134,
    135,
    136,
    137,
    138,
    139,
    140,
    141,
    142,
    143,
    144,
    145,
    146,
    147,
    148,
    149,
    150,
    151,
    152,
    153,
    154,
    155,
    156,
    157,
    158,
    159,
    160,
    161,
    162,
    163,
    164,
    165,
    166,
    167,
    168,
    169,
    170,
    171,
    172,
    173,
    174,
    175,
    176,
    177,
    178,
    179,
    180,
    181,
    182,
    183,
    184,
    185,
    186,
    187,
    188,
    189,
    190,
    191,
    192,
    193,
    194,
    195,
    196,
    197,
    198,
    199,
    200,
    201,
    202,
    203,
    204,
    205,
    206,
    207,
    208,
    209,
    210,
    211,
    212,
    213,
    214,
    215,
    216,
    217,
    218,
    219,
    220,
    221,
    222,
    223,
    224,
    225,
    226,
    227,
    228,
    229,
    230,
    231,
    232,
    233,
    234,
    235,
    236,
    237,
    238,
    239,
    240,
    241,
    242,
    243,
    244,
    245,
    246,
    247,
    248,
    249,
    250,
    251,
    252,
    253,
    254,
    255,
    256
   ],
   "LargestImagePixelValue": [
    3177,
    3154,
    3064,
    3051,
    3013,
    3037,
    3041,
    3075,
    3069,
    3052,
    3025,
    3008,
    3029,
    3020,
    2985,
    3048,
    3012,
    3015,
    3055,
    3086,
    3076,
    3059,
    3049,
    3037,
    3051,
    3058,
    3039,
    3026,
    3030,
    3057,
    3039,
    3011,
    3008,
    3019,
    3039,
    2996,
    2998,
    3018,
    3002,
    3030,
    3026,
    2995,
    2990,
    2981,
    3022,
    3059,
    3020,
    3015,
    3013,
    3019,
    3025,
    3034,
    2992,
    3007,
    3046,
    3018,
    3009,
    3005,
    2933,
    2928,
    2982,
    3035,
    2991,
    3003,
    2986,
    2999,
    3003,
    2998,
    2973,
    2984,
    2988,
    2944,
    2974,
    2943,
    2984,
    2953,
    2952,
    3009,
    2954,
    2920,
    2974,
    2971,
    2964,
    2925,
    2961,
    2945,
    2946,
    2983,
    2957,
    2940,
    2920,
    2950,
    2956,
    2960,
    2961,
    2966,
    2992,
    2969,
    2902,
    2935,
    2935,
    2971,
    2936,
    2921,
    2940,
    2958,
    2926,
    2939,
    2913,
    2913,
    2927,
    2914,
    2980,
    2925,
    2924,
    2923,
    2911,
    2914,
    2927,
    2940,
    2923,
    2917,
    2921,
    2900,
    2913,
    2908,
    2927,
    2930,
    2886,
    2882,
    2919,
    2930,
    2928,
    2912,
    2931,
    2908,
    2917,
    2929,
    2886,
    2913,
    2908,
    2915,
    2976,
    2920,
    2905,
    2923,
    2892,
    2929,
    2921,
    2905,
    2891,
    2882,
    2948,
    2971,
    2911,
    2894,
    2882,
    2904,
    2925,
    2889,
    2908,
    2923,
    2942,
    2908,
    2904,
    2893,
    2934,
    2901,
    2915,
    2913,
    2908,
    2904,
    2918,
    2905,
    2938,
    2921,
    2873,
    2944,
    2891,
    2871,
    2916,
    2898,
    2895,
    2919,
    2917,
    2919,
    2904,
    2889,
    2878,
    2878,
    3330,
    2903,
    2916,
    2904,
    2914,
    2888,
    2897,
    2888,
    2948,
    2910,
    2868,
    2882,
    2887,
    2912,
    2857,
    2868,
    2909,
    2877,
    2864,
    2904,
    2887,
    2893,
    2906,
    2889,
    2870,
    2864,
    2911,
    2895,
    2903,
    2904,
    2867,
    2886,
    2904,
    2915,
    2872,
    2868,
    2899,
    2883,
    2895,
    2885,
    2861,
    2884,
    2872,
    2872,
    2885,
    2866,
    2894,
    2864,
    2880,
    2866,
    2847,
    2848,
    2841,
    2886,
    2845,
    2845,
    2909,
    2905,
    2889,
    2926,
    2903,
    2891,
    2924,
    2842,
    2853,
    2918
   ],
   "WindowCenter": [
    818.0,
    818.0,
    819.0,
    819.0,
    818.0,
    817.0,
    816.0,
    817.0,
    816.0,
    817.0,
    818.0,
    818.0,
    817.0,
    817.0,
    817.0,
    818.0,
    818.0,
    817.0,
    816.0,
    816.0,
    817.0,
    817.0,
    818.0,
    819.0,
    818.0,
    817.0,
    816.0,
    817.0,
    818.0,
    817.0,
    816.0,
    817.0,
    816.0,
    817.0,
    817.0,
    818.0,
    818.0,
    818.0,
    817.0,
    816.0,
    817.0,
    817.0,
    817.0,
    817.0,
    816.0,
    816.0,
    816.0,
    817.0,
    817.0,
    816.0,
    816.0,
    816.0,
    816.0,
    815.0,
    815.0,
    816.0,
    816.0,
    817.0,
    818.0,
    816.0,
    815.0,
    815.0,
    815.0,
    816.0,
    816.0,
    816.0,
    816.0,
    816.0,
    815.0,
    815.0,
    816.0,
    816.0,
    816.0,
    816.0,
    816.0,
    815.0,
    815.0,
    815.0,
    815.0,
    816.0,
    815.0,
    814.0,
    814.0,
    815.0,
    816.0,
    815.0,
    815.0,
    815.0,
    815.0,
    816.0,
    816.0,
    815.0,
    814.0,
    815.0,
    816.0,
    815.0,
    815.0,
    816.0,
    817.0,
    817.0,
    815.0,
    816.0,
    817.0,
    816.0,
    814.0,
    815.0,
    816.0,
    817.0,
    817.0,
    816.0,
    816.0,
    816.0,
    816.0,
    816.0,
    816.0,
    816.0,
    815.0,
    814.0,
    814.0,
    815.0,
    814.0,
    814.0,
    815.0,
    815.0,
    815.0,
    815.0,
    815.0,
