{
 "AcquisitionMatrixPE": 100,
 "AcquisitionNumber": 1,
 "AcquisitionTime": "13:57:20.700000",
 "BandwidthPerPixelPhaseEncode": 18.519,
 "BaseResolution": 100,
 "BodyPartExamined": "BRAIN",
 "ConsistencyInfo": "N4_VE11C_LATEST_20160120",
 "ConversionSoftware": "dcm2niix",
 "ConversionSoftwareVersion": "v1.0.20180622 GCC4.9.2",
 "DerivedVendorReportedEchoSpacing": 0.000539986,
 "DeviceSerialNumber": "166078",
 "DwellTime": 2.1e-06,
 "EchoTime": 0.034,
 "EchoTrainLength": 100,
 "EffectiveEchoSpacing": 0.000539986,
 "FlipAngle": 90,
 "ImageOrientationPatientDICOM": [
  0.999962,
  0.00193335,
  0.00850967,
  -2.73757e-09,
  0.975149,
  -0.221548
 ],
 "ImageType": [
  "ORIGINAL",
  "PRIMARY",
  "M",
  "ND",
  "MOSAIC"
 ],
 "InPlanePhaseEncodingDirectionDICOM": "COL",
 "InstitutionAddress": "Street_StreetNo_Bei_Jing_District_CN_ZIP",
 "InstitutionName": "BeiJing_Normal_University",
 "InstitutionalDepartmentName": "Department",
 "MRAcquisitionType": "2D",
 "MagneticFieldStrength": 3,
 "Manufacturer": "Siemens",
 "ManufacturersModelName": "Prisma",
 "Modality": "MR",
 "MultibandAccelerationFactor": 3,
 "PartialFourier": 1,
 "PatientPosition": "HFS",
 "PercentPhaseFOV": 100,
 "PhaseEncodingDirection": "j-",
 "PhaseEncodingSteps": 100,
 "PhaseResolution": 1,
 "PixelBandwidth": 2380,
 "ProcedureStepDescription": "BNU_P2018_64CH_Zhen.ZongLei",
 "ProtocolName": "bold_100x100_s3_2x2x2_static_256",
 "PulseSequenceDetails": "%SiemensSeq%_ep2d_bold",
 "ReceiveCoilActiveElements": "HC1-7;NC1",
 "ReceiveCoilName": "HeadNeck_64",
 "ReconMatrixPE": 100,
 "RepetitionTime": 2,
 "SAR": 0.0768872,
 "ScanOptions": "FS",
 "ScanningSequence": "EP",
 "SequenceName": "_epfid2d1_100",
 "SequenceVariant": "SK",
 "SeriesDescription": "bold_100x100_s3_2x2x2_static_256",
 "SeriesNumber": 8,
 "ShimSetting": [
  -5463,
  -11511,
  -1295,
  471,
  -65,
  -229,
  -93,
  55
 ],
 "SliceThickness": 2,
 "SliceTiming": [
  1.485,
  0,
  0.99,
  0.0825,
  1.0725,
  0.165,
  1.155,
  0.2475,
  1.2375,
  0.33,
  1.32,
  0.4125,
  1.4025,
  0.5775,
  1.5675,
  0.66,
  1.65,
  0.7425,
  1.7325,
  0.825,
  1.815,
  0.9075,
  1.8975,
  0.495,
  1.485,
  0,
  0.99,
  0.0825,
  1.0725,
  0.165,
  1.155,
  0.2475,
  1.2375,
  0.33,
  1.32,
  0.4125,
  1.4025,
  0.5775,
  1.5675,
  0.66,
  1.65,
  0.7425,
  1.7325,
  0.825,
  1.815,
  0.9075,
  1.8975,
  0.495,
  1.485,
  0,
  0.99,
  0.0825,
  1.0725,
  0.165,
  1.155,
  0.2475,
  1.2375,
  0.33,
  1.32,
  0.4125,
  1.4025,
  0.5775,
  1.5675,
  0.66,
  1.65,
  0.7425,
  1.7325,
  0.825,
  1.815,
  0.9075,
  1.8975,
  0.495
 ],
 "SoftwareVersions": "syngo_MR_E11",
 "SpacingBetweenSlices": 2,
 "StationName": "AWP166078",
 "TaskName": "imagenet",
 "TotalReadoutTime": 0.0534586,
 "TxRefAmp": 218.717,
 "dcmmeta_affine": [
  [
   -1.999923825263977,
   -5.475131903409647e-09,
   0.017453065142035484,
   101.54609680175781
  ],
  [
   -0.003866705810651183,
   1.9502986669540405,
   -0.4430801272392273,
   -77.69586944580078
  ],
  [
   0.017019344493746758,
   0.44309699535369873,
   1.95022451877594,
   -102.74598693847656
  ],
  [
   0.0,
   0.0,
   0.0,
   1.0
  ]
 ],
 "dcmmeta_reorient_transform": [
  [
   0.0,
   -1.0,
   0.0,
   99.0
  ],
  [
   1.0,
   0.0,
   0.0,
   0.0
  ],
  [
   0.0,
   0.0,
   1.0,
   0.0
  ],
  [
   0.0,
   0.0,
   0.0,
   1.0
  ]
 ],
 "dcmmeta_shape": [
  100,
  100,
  72,
  256
 ],
 "dcmmeta_slice_dim": 2,
 "dcmmeta_version": 0.6,
 "global": {
  "const": {
   "AcquisitionMatrix": [
    100,
    0,
    0,
    100
   ],
   "AngioFlag": "N",
   "BitsAllocated": 16,
   "BitsStored": 12,
   "BodyPartExamined": "BRAIN",
   "Columns": 900,
   "EchoNumbers": 1,
   "EchoTime": 34.0,
   "EchoTrainLength": 100,
   "FlipAngle": 90.0,
   "HighBit": 11,
   "ImageOrientationPatient": [
    0.99996192308933,
    0.00193335288668,
    0.00850967203305,
    -2.737566e-09,
    0.97514935360807,
    -0.2215485006895
   ],
   "ImagePositionPatient": [
    -901.5156357625,
    -897.04986423578,
    111.55168010475
   ],
   "ImageType": [
    "ORIGINAL",
    "PRIMARY",
    "M",
    "ND",
    "MOSAIC"
   ],
   "ImagedNucleus": "1H",
   "ImagingFrequency": 123.25775,
   "InPlanePhaseEncodingDirection": "COL",
   "MRAcquisitionType": "2D",
   "MagneticFieldStrength": 3.0,
   "Manufacturer": "SIEMENS",
   "ManufacturerModelName": "Prisma",
   "Modality": "MR",
   "NumberOfAverages": 1.0,
   "NumberOfPhaseEncodingSteps": 100,
   "PercentPhaseFieldOfView": 100.0,
   "PercentSampling": 100.0,
   "PerformedProcedureStepStartTime": "130903.284000",
   "PhotometricInterpretation": "MONOCHROME2",
   "PixelBandwidth": 2380.0,
   "PixelRepresentation": 0,
   "PixelSpacing": [
    2.0,
    2.0
   ],
   "ProtocolName": "bold_100x100_s3_2x2x2_static_256",
   "RepetitionTime": 2000.0,
   "Rows": 900,
   "SAR": 0.0768872168111,
   "SamplesPerPixel": 1,
   "ScanOptions": "FS",
   "ScanningSequence": "EP",
   "SequenceName": "*epfid2d1_100",
   "SequenceVariant": "SK",
   "SeriesDescription": "bold_100x100_s3_2x2x2_static_256",
   "SeriesNumber": 8,
   "SeriesTime": "135723.609000",
   "SliceLocation": -82.089972678415,
   "SliceThickness": 2.0,
   "SmallestImagePixelValue": 0,
   "SoftwareVersions": "syngo MR E11",
   "SpacingBetweenSlices": 2.0000000415733,
   "SpecificCharacterSet": "ISO_IR 100",
   "StudyID": "1",
   "StudyTime": "130903.184000",
   "TransmitCoilName": "Body",
   "VariableFlipAngleFlag": "N",
   "WindowCenterWidthExplanation": "Algo1",
   "dBdt": 0.0
  },
  "slices": {}
 },
 "time": {
  "samples": {
   "AcquisitionNumber": [
    1,
    2,
    3,
    4,
    5,
    6,
    7,
    8,
    9,
    10,
    11,
    12,
    13,
    14,
    15,
    16,
    17,
    18,
    19,
    20,
    21,
    22,
    23,
    24,
    25,
    26,
    27,
    28,
    29,
    30,
    31,
    32,
    33,
    34,
    35,
    36,
    37,
    38,
    39,
    40,
    41,
    42,
    43,
    44,
    45,
    46,
    47,
    48,
    49,
    50,
    51,
    52,
    53,
    54,
    55,
    56,
    57,
    58,
    59,
    60,
    61,
    62,
    63,
    64,
    65,
    66,
    67,
    68,
    69,
    70,
    71,
    72,
    73,
    74,
    75,
    76,
    77,
    78,
    79,
    80,
    81,
    82,
    83,
    84,
    85,
    86,
    87,
    88,
    89,
    90,
    91,
    92,
    93,
    94,
    95,
    96,
    97,
    98,
    99,
    100,
    101,
    102,
    103,
    104,
    105,
    106,
    107,
    108,
    109,
    110,
    111,
    112,
    113,
    114,
    115,
    116,
    117,
    118,
    119,
    120,
    121,
    122,
    123,
    124,
    125,
    126,
    127,
    128,
    129,
    130,
    131,
    132,
    133,
    134,
    135,
    136,
    137,
    138,
    139,
    140,
    141,
    142,
    143,
    144,
    145,
    146,
    147,
    148,
    149,
    150,
    151,
    152,
    153,
    154,
    155,
    156,
    157,
    158,
    159,
    160,
    161,
    162,
    163,
    164,
    165,
    166,
    167,
    168,
    169,
    170,
    171,
    172,
    173,
    174,
    175,
    176,
    177,
    178,
    179,
    180,
    181,
    182,
    183,
    184,
    185,
    186,
    187,
    188,
    189,
    190,
    191,
    192,
    193,
    194,
    195,
    196,
    197,
    198,
    199,
    200,
    201,
    202,
    203,
    204,
    205,
    206,
    207,
    208,
    209,
    210,
    211,
    212,
    213,
    214,
    215,
    216,
    217,
    218,
    219,
    220,
    221,
    222,
    223,
    224,
    225,
    226,
    227,
    228,
    229,
    230,
    231,
    232,
    233,
    234,
    235,
    236,
    237,
    238,
    239,
    240,
    241,
    242,
    243,
    244,
    245,
    246,
    247,
    248,
    249,
    250,
    251,
    252,
    253,
    254,
    255,
    256
   ],
   "AcquisitionTime": [
    "135720.700000",
    "135722.700000",
    "135724.700000",
    "135726.700000",
    "135728.700000",
    "135730.700000",
    "135732.700000",
    "135734.700000",
    "135736.700000",
    "135738.700000",
    "135740.700000",
    "135742.700000",
    "135744.700000",
    "135746.700000",
    "135748.700000",
    "135750.700000",
    "135752.700000",
    "135754.700000",
    "135756.700000",
    "135758.700000",
    "135800.700000",
    "135802.700000",
    "135804.700000",
    "135806.700000",
    "135808.700000",
    "135810.700000",
    "135812.700000",
    "135814.700000",
    "135816.700000",
    "135818.700000",
    "135820.700000",
    "135822.700000",
    "135824.700000",
    "135826.700000",
    "135828.700000",
    "135830.700000",
    "135832.700000",
    "135834.700000",
    "135836.700000",
    "135838.700000",
    "135840.700000",
    "135842.700000",
    "135844.700000",
    "135846.700000",
    "135848.700000",
    "135850.700000",
    "135852.700000",
    "135854.700000",
    "135856.700000",
    "135858.700000",
    "135900.700000",
    "135902.700000",
    "135904.700000",
    "135906.700000",
    "135908.700000",
    "135910.700000",
    "135912.700000",
    "135914.700000",
    "135916.700000",
    "135918.700000",
    "135920.700000",
    "135922.700000",
    "135924.700000",
    "135926.700000",
    "135928.700000",
    "135930.700000",
    "135932.700000",
    "135934.700000",
    "135936.700000",
    "135938.700000",
    "135940.700000",
    "135942.700000",
    "135944.700000",
    "135946.700000",
    "135948.700000",
    "135950.700000",
    "135952.700000",
    "135954.700000",
    "135956.700000",
    "135958.700000",
    "140000.700000",
    "140002.700000",
    "140004.700000",
    "140006.700000",
    "140008.700000",
    "140010.700000",
    "140012.700000",
    "140014.700000",
    "140016.700000",
    "140018.700000",
    "140020.700000",
    "140022.700000",
    "140024.700000",
    "140026.700000",
    "140028.700000",
    "140030.700000",
    "140032.700000",
    "140034.700000",
    "140036.700000",
    "140038.700000",
    "140040.700000",
    "140042.700000",
    "140044.700000",
    "140046.700000",
    "140048.700000",
    "140050.700000",
    "140052.700000",
    "140054.700000",
    "140056.700000",
    "140058.700000",
    "140100.700000",
    "140102.700000",
    "140104.700000",
    "140106.700000",
    "140108.700000",
    "140110.700000",
    "140112.700000",
    "140114.700000",
    "140116.700000",
    "140118.700000",
    "140120.700000",
    "140122.700000",
    "140124.700000",
    "140126.700000",
    "140128.700000",
    "140130.700000",
    "140132.700000",
    "140134.700000",
    "140136.700000",
    "140138.700000",
    "140140.700000",
    "140142.700000",
    "140144.700000",
    "140146.700000",
    "140148.700000",
    "140150.700000",
    "140152.700000",
    "140154.700000",
    "140156.700000",
    "140158.700000",
    "140200.700000",
    "140202.700000",
    "140204.700000",
    "140206.700000",
    "140208.700000",
    "140210.700000",
    "140212.700000",
    "140214.700000",
    "140216.700000",
    "140218.700000",
    "140220.700000",
    "140222.700000",
    "140224.700000",
    "140226.700000",
    "140228.700000",
    "140230.700000",
    "140232.700000",
    "140234.700000",
    "140236.700000",
    "140238.700000",
    "140240.700000",
    "140242.700000",
    "140244.700000",
    "140246.700000",
    "140248.700000",
    "140250.700000",
    "140252.700000",
    "140254.700000",
    "140256.700000",
    "140258.700000",
    "140300.700000",
    "140302.700000",
    "140304.700000",
    "140306.700000",
    "140308.700000",
    "140310.700000",
    "140312.700000",
    "140314.700000",
    "140316.700000",
    "140318.700000",
    "140320.700000",
    "140322.700000",
    "140324.700000",
    "140326.700000",
    "140328.700000",
    "140330.700000",
    "140332.700000",
    "140334.700000",
    "140336.700000",
    "140338.700000",
    "140340.700000",
    "140342.700000",
    "140344.700000",
    "140346.700000",
    "140348.700000",
    "140350.700000",
    "140352.700000",
    "140354.700000",
    "140356.700000",
    "140358.700000",
    "140400.700000",
    "140402.700000",
    "140404.700000",
    "140406.700000",
    "140408.700000",
    "140410.700000",
    "140412.700000",
    "140414.700000",
    "140416.700000",
    "140418.700000",
    "140420.700000",
    "140422.700000",
    "140424.700000",
    "140426.700000",
    "140428.700000",
    "140430.700000",
    "140432.700000",
    "140434.700000",
    "140436.700000",
    "140438.700000",
    "140440.700000",
    "140442.700000",
    "140444.700000",
    "140446.700000",
    "140448.700000",
    "140450.700000",
    "140452.700000",
    "140454.700000",
    "140456.700000",
    "140458.700000",
    "140500.700000",
    "140502.700000",
    "140504.700000",
    "140506.700000",
    "140508.700000",
    "140510.700000",
    "140512.700000",
    "140514.700000",
    "140516.700000",
    "140518.700000",
    "140520.700000",
    "140522.700000",
    "140524.700000",
    "140526.700000",
    "140528.700000",
    "140530.700000",
    "140532.700000",
    "140534.700000",
    "140536.700000",
    "140538.700000",
    "140540.700000",
    "140542.700000",
    "140544.700000",
    "140546.700000",
    "140548.700000",
    "140550.700000"
   ],
   "ContentTime": [
    "135723.613000",
    "135725.107000",
    "135727.108000",
    "135729.108000",
    "135731.107000",
    "135733.107000",
    "135735.108000",
    "135737.108000",
    "135739.108000",
    "135741.109000",
    "135743.107000",
    "135745.107000",
    "135747.107000",
    "135749.108000",
    "135751.107000",
    "135753.108000",
    "135755.108000",
    "135757.108000",
    "135759.108000",
    "135801.108000",
    "135803.107000",
    "135805.107000",
    "135807.107000",
    "135809.108000",
    "135811.108000",
    "135813.109000",
    "135815.109000",
    "135817.108000",
    "135819.107000",
    "135821.107000",
    "135823.107000",
    "135825.108000",
    "135827.107000",
    "135829.108000",
    "135831.109000",
    "135833.109000",
    "135835.108000",
    "135837.108000",
    "135839.108000",
    "135841.107000",
    "135843.107000",
    "135845.108000",
    "135847.109000",
    "135849.109000",
    "135851.109000",
    "135853.107000",
    "135855.107000",
    "135857.108000",
    "135859.107000",
    "135901.107000",
    "135903.107000",
    "135905.109000",
    "135907.108000",
    "135909.109000",
    "135911.108000",
    "135913.107000",
    "135915.107000",
    "135917.108000",
    "135919.108000",
    "135921.108000",
    "135923.108000",
    "135925.109000",
    "135927.108000",
    "135929.107000",
    "135931.108000",
    "135933.108000",
    "135935.107000",
    "135937.108000",
    "135939.108000",
    "135941.109000",
    "135943.109000",
    "135945.107000",
    "135947.107000",
    "135949.107000",
    "135951.108000",
    "135953.107000",
    "135955.108000",
    "135957.109000",
    "135959.109000",
    "140001.108000",
    "140003.107000",
    "140005.107000",
    "140007.107000",
    "140009.108000",
    "140011.107000",
    "140013.107000",
    "140015.109000",
    "140017.109000",
    "140019.109000",
    "140021.107000",
    "140023.108000",
    "140025.107000",
    "140027.108000",
    "140029.108000",
    "140031.109000",
    "140033.108000",
    "140035.109000",
    "140037.108000",
    "140039.108000",
    "140041.108000",
    "140043.108000",
    "140045.107000",
    "140047.108000",
    "140049.108000",
    "140051.108000",
    "140053.108000",
    "140055.107000",
    "140057.107000",
    "140059.108000",
    "140101.108000",
    "140103.107000",
    "140105.107000",
    "140107.109000",
    "140109.109000",
    "140111.109000",
    "140113.108000",
    "140115.108000",
    "140117.108000",
    "140119.107000",
    "140121.107000",
    "140123.107000",
    "140125.109000",
    "140127.109000",
    "140129.108000",
    "140131.108000",
    "140133.108000",
    "140135.108000",
    "140137.107000",
    "140139.107000",
    "140141.108000",
    "140143.109000",
    "140145.109000",
    "140147.108000",
    "140149.108000",
    "140151.107000",
    "140153.107000",
    "140155.108000",
    "140157.107000",
    "140159.108000",
    "140201.108000",
    "140203.109000",
    "140205.108000",
    "140207.108000",
    "140209.108000",
    "140211.108000",
    "140213.107000",
    "140215.107000",
    "140217.109000",
    "140219.109000",
    "140221.108000",
    "140223.107000",
    "140225.107000",
    "140227.107000",
    "140229.107000",
    "140231.108000",
    "140233.108000",
    "140235.109000",
    "140237.109000",
    "140239.109000",
    "140241.108000",
    "140243.107000",
    "140245.108000",
    "140247.108000",
    "140249.108000",
    "140251.108000",
    "140253.109000",
    "140255.109000",
    "140257.108000",
    "140259.107000",
    "140301.107000",
    "140303.108000",
    "140305.108000",
    "140307.108000",
    "140309.108000",
    "140311.108000",
    "140313.109000",
    "140315.107000",
    "140317.108000",
    "140319.108000",
    "140321.108000",
    "140323.107000",
    "140325.107000",
    "140327.108000",
    "140329.108000",
    "140331.109000",
    "140333.108000",
    "140335.107000",
    "140337.108000",
    "140339.108000",
    "140341.108000",
    "140343.107000",
    "140345.109000",
    "140347.109000",
    "140349.109000",
    "140351.107000",
    "140353.107000",
    "140355.107000",
    "140357.107000",
    "140359.108000",
    "140401.109000",
    "140403.109000",
    "140405.108000",
    "140407.107000",
    "140409.108000",
    "140411.108000",
    "140413.108000",
    "140415.108000",
    "140417.107000",
    "140419.108000",
    "140421.108000",
    "140423.109000",
    "140425.108000",
    "140427.108000",
    "140429.108000",
    "140431.108000",
    "140433.107000",
    "140435.108000",
    "140437.108000",
    "140439.109000",
    "140441.109000",
    "140443.108000",
    "140445.108000",
    "140447.108000",
    "140449.108000",
    "140451.108000",
    "140453.107000",
    "140455.108000",
    "140457.109000",
    "140459.109000",
    "140501.108000",
    "140503.107000",
    "140505.107000",
    "140507.108000",
    "140509.107000",
    "140511.109000",
    "140513.109000",
    "140515.109000",
    "140517.108000",
    "140519.108000",
    "140521.108000",
    "140523.108000",
    "140525.108000",
    "140527.108000",
    "140529.109000",
    "140531.109000",
    "140533.108000",
    "140535.108000",
    "140537.107000",
    "140539.107000",
    "140541.108000",
    "140543.108000",
    "140545.107000",
    "140547.108000",
    "140549.109000",
    "140551.109000",
    "140552.772000"
   ],
   "InstanceCreationTime": [
    "135723.613000",
    "135725.107000",
    "135727.108000",
    "135729.108000",
    "135731.107000",
    "135733.107000",
    "135735.108000",
    "135737.108000",
    "135739.108000",
    "135741.109000",
    "135743.107000",
    "135745.107000",
    "135747.107000",
    "135749.108000",
    "135751.107000",
    "135753.108000",
    "135755.108000",
    "135757.108000",
    "135759.108000",
    "135801.108000",
    "135803.107000",
    "135805.107000",
    "135807.107000",
    "135809.108000",
    "135811.108000",
    "135813.109000",
    "135815.109000",
    "135817.108000",
    "135819.107000",
    "135821.107000",
    "135823.107000",
    "135825.108000",
    "135827.107000",
    "135829.108000",
    "135831.109000",
    "135833.109000",
    "135835.108000",
    "135837.108000",
    "135839.108000",
    "135841.107000",
    "135843.107000",
    "135845.108000",
    "135847.109000",
    "135849.109000",
    "135851.109000",
    "135853.107000",
    "135855.107000",
    "135857.108000",
    "135859.107000",
    "135901.107000",
    "135903.107000",
    "135905.109000",
    "135907.108000",
    "135909.109000",
    "135911.108000",
    "135913.107000",
    "135915.107000",
    "135917.108000",
    "135919.108000",
    "135921.108000",
    "135923.108000",
    "135925.109000",
    "135927.108000",
    "135929.107000",
    "135931.108000",
    "135933.108000",
    "135935.107000",
    "135937.108000",
    "135939.108000",
    "135941.109000",
    "135943.109000",
    "135945.107000",
    "135947.107000",
    "135949.107000",
    "135951.108000",
    "135953.107000",
    "135955.108000",
    "135957.109000",
    "135959.109000",
    "140001.108000",
    "140003.107000",
    "140005.107000",
    "140007.107000",
    "140009.108000",
    "140011.107000",
    "140013.107000",
    "140015.109000",
    "140017.109000",
    "140019.109000",
    "140021.107000",
    "140023.108000",
    "140025.107000",
    "140027.108000",
    "140029.108000",
    "140031.109000",
    "140033.108000",
    "140035.109000",
    "140037.108000",
    "140039.108000",
    "140041.108000",
    "140043.108000",
    "140045.107000",
    "140047.108000",
    "140049.108000",
    "140051.108000",
    "140053.108000",
    "140055.107000",
    "140057.107000",
    "140059.108000",
    "140101.108000",
    "140103.107000",
    "140105.107000",
    "140107.109000",
    "140109.109000",
    "140111.109000",
    "140113.108000",
    "140115.108000",
    "140117.108000",
    "140119.107000",
    "140121.107000",
    "140123.107000",
    "140125.109000",
    "140127.109000",
    "140129.108000",
    "140131.108000",
    "140133.108000",
    "140135.108000",
    "140137.107000",
    "140139.107000",
    "140141.108000",
    "140143.109000",
    "140145.109000",
    "140147.108000",
    "140149.108000",
    "140151.107000",
    "140153.107000",
    "140155.108000",
    "140157.107000",
    "140159.108000",
    "140201.108000",
    "140203.109000",
    "140205.108000",
    "140207.108000",
    "140209.108000",
    "140211.108000",
    "140213.107000",
    "140215.107000",
    "140217.109000",
    "140219.109000",
    "140221.108000",
    "140223.107000",
    "140225.107000",
    "140227.107000",
    "140229.107000",
    "140231.108000",
    "140233.108000",
    "140235.109000",
    "140237.109000",
    "140239.109000",
    "140241.108000",
    "140243.107000",
    "140245.108000",
    "140247.108000",
    "140249.108000",
    "140251.108000",
    "140253.109000",
    "140255.109000",
    "140257.108000",
    "140259.107000",
    "140301.107000",
    "140303.108000",
    "140305.108000",
    "140307.108000",
    "140309.108000",
    "140311.108000",
    "140313.109000",
    "140315.107000",
    "140317.108000",
    "140319.108000",
    "140321.108000",
    "140323.107000",
    "140325.107000",
    "140327.108000",
    "140329.108000",
    "140331.109000",
    "140333.108000",
    "140335.107000",
    "140337.108000",
    "140339.108000",
    "140341.108000",
    "140343.107000",
    "140345.109000",
    "140347.109000",
    "140349.109000",
    "140351.107000",
    "140353.107000",
    "140355.107000",
    "140357.107000",
    "140359.108000",
    "140401.109000",
    "140403.109000",
    "140405.108000",
    "140407.107000",
    "140409.108000",
    "140411.108000",
    "140413.108000",
    "140415.108000",
    "140417.107000",
    "140419.108000",
    "140421.108000",
    "140423.109000",
    "140425.108000",
    "140427.108000",
    "140429.108000",
    "140431.108000",
    "140433.107000",
    "140435.108000",
    "140437.108000",
    "140439.109000",
    "140441.109000",
    "140443.108000",
    "140445.108000",
    "140447.108000",
    "140449.108000",
    "140451.108000",
    "140453.107000",
    "140455.108000",
    "140457.109000",
    "140459.109000",
    "140501.108000",
    "140503.107000",
    "140505.107000",
    "140507.108000",
    "140509.107000",
    "140511.109000",
    "140513.109000",
    "140515.109000",
    "140517.108000",
    "140519.108000",
    "140521.108000",
    "140523.108000",
    "140525.108000",
    "140527.108000",
    "140529.109000",
    "140531.109000",
    "140533.108000",
    "140535.108000",
    "140537.107000",
    "140539.107000",
    "140541.108000",
    "140543.108000",
    "140545.107000",
    "140547.108000",
    "140549.109000",
    "140551.109000",
    "140552.772000"
   ],
   "InstanceNumber": [
    1,
    2,
    3,
    4,
    5,
    6,
    7,
    8,
    9,
    10,
    11,
    12,
    13,
    14,
    15,
    16,
    17,
    18,
    19,
    20,
    21,
    22,
    23,
    24,
    25,
    26,
    27,
    28,
    29,
    30,
    31,
    32,
    33,
    34,
    35,
    36,
    37,
    38,
    39,
    40,
    41,
    42,
    43,
    44,
    45,
    46,
    47,
    48,
    49,
    50,
    51,
    52,
    53,
    54,
    55,
    56,
    57,
    58,
    59,
    60,
    61,
    62,
    63,
    64,
    65,
    66,
    67,
    68,
    69,
    70,
    71,
    72,
    73,
    74,
    75,
    76,
    77,
    78,
    79,
    80,
    81,
    82,
    83,
    84,
    85,
    86,
    87,
    88,
    89,
    90,
    91,
    92,
    93,
    94,
    95,
    96,
    97,
    98,
    99,
    100,
    101,
    102,
    103,
    104,
    105,
    106,
    107,
    108,
    109,
    110,
    111,
    112,
    113,
    114,
    115,
    116,
    117,
    118,
    119,
    120,
    121,
    122,
    123,
    124,
    125,
    126,
    127,
    128,
    129,
    130,
    131,
    132,
    133,
    134,
    135,
    136,
    137,
    138,
    139,
    140,
    141,
    142,
    143,
    144,
    145,
    146,
    147,
    148,
    149,
    150,
    151,
    152,
    153,
    154,
    155,
    156,
    157,
    158,
    159,
    160,
    161,
    162,
    163,
    164,
    165,
    166,
    167,
    168,
    169,
    170,
    171,
    172,
    173,
    174,
    175,
    176,
    177,
    178,
    179,
    180,
    181,
    182,
    183,
    184,
    185,
    186,
    187,
    188,
    189,
    190,
    191,
    192,
    193,
    194,
    195,
    196,
    197,
    198,
    199,
    200,
    201,
    202,
    203,
    204,
    205,
    206,
    207,
    208,
    209,
    210,
    211,
    212,
    213,
    214,
    215,
    216,
    217,
    218,
    219,
    220,
    221,
    222,
    223,
    224,
    225,
    226,
    227,
    228,
    229,
    230,
    231,
    232,
    233,
    234,
    235,
    236,
    237,
    238,
    239,
    240,
    241,
    242,
    243,
    244,
    245,
    246,
    247,
    248,
    249,
    250,
    251,
    252,
    253,
    254,
    255,
    256
   ],
   "LargestImagePixelValue": [
    2521,
    2505,
    2498,
    2671,
    2451,
    2504,
    2517,
    2488,
    2484,
    2522,
    2542,
    2553,
    2522,
    2527,
    2528,
    2509,
    2478,
    2576,
    2545,
    2531,
    2523,
    2495,
    2507,
    2520,
    2547,
    2521,
    2557,
    2529,
    2555,
    2497,
    2495,
    2488,
    2513,
    2514,
    2511,
    2511,
    2519,
    2592,
    2514,
    2502,
    2498,
    2522,
    2538,
    2533,
    2532,
    2524,
    2504,
    2532,
    2540,
    2519,
    2491,
    2520,
    2513,
    2545,
    2517,
    2515,
    2485,
    2522,
    2506,
    2532,
    2544,
    2554,
    2532,
    2533,
    2527,
    2528,
    2546,
    2504,
    2474,
    2528,
    2503,
    2550,
    2555,
    2543,
    2552,
    2551,
    2561,
    2517,
    2519,
    2501,
    2493,
    2506,
    2536,
    2543,
    2527,
    2524,
    2512,
    2504,
    2567,
    2494,
    2478,
    2482,
    2472,
    2477,
    2518,
    2536,
    2506,
    2558,
    2540,
    2572,
    2530,
    2559,
    2533,
    2501,
    2504,
    2537,
    2532,
    2554,
    2539,
    2526,
    2549,
    2538,
    2533,
    2513,
    2524,
    2478,
    2514,
    2524,
    2512,
    2499,
    2567,
    3045,
    2541,
    2534,
    2545,
    2522,
    2517,
    2500,
    2486,
    2519,
    2624,
    2632,
    2558,
    2553,
    2556,
    2554,
    2555,
    2526,
    2512,
    2540,
    2559,
    2534,
    2561,
    2732,
    2545,
    2542,
    2529,
    2566,
    2544,
    2542,
    2567,
    2530,
    2545,
    2526,
    2523,
    2516,
    2558,
    2517,
    2511,
    2526,
    2513,
    2503,
    2519,
    2505,
    2484,
    2511,
    2504,
    2513,
    2503,
    2519,
    2510,
    2524,
    2519,
    2523,
    2554,
    2619,
    2506,
    2517,
    2496,
    2519,
    2506,
    2530,
    2558,
    2527,
    2548,
    2554,
    2538,
    2494,
    2528,
    2509,
    2542,
    2563,
    2559,
    2554,
    2567,
    2562,
    2533,
    2557,
    2555,
    2519,
    2500,
    2537,
    2502,
    2533,
    2526,
    2499,
    2517,
    2511,
    2522,
    2550,
    2553,
    2596,
    2502,
    2525,
    2527,
    2563,
    2526,
    2523,
    2507,
    2529,
    2527,
    2560,
    2534,
    2539,
    2524,
    2553,
    2567,
    2544,
    2549,
    2575,
    2549,
    2545,
    2536,
    2567,
    2526,
    2533,
    2511,
    2532,
    2561,
    2540,
    2565,
    2544,
    2551,
    2542,
    2529,
    2530,
    2516,
    2510,
    2513,
    2600,
    2606,
    2566,
    2522,
    2512,
    2510,
    2508
   ],
   "WindowCenter": [
    733.0,
    731.0,
    730.0,
    731.0,
    728.0,
    732.0,
    732.0,
    731.0,
    730.0,
    730.0,
    732.0,
    732.0,
    732.0,
    731.0,
    729.0,
    730.0,
    730.0,
    731.0,
    731.0,
    731.0,
    731.0,
    730.0,
    731.0,
    731.0,
    732.0,
    730.0,
    730.0,
    730.0,
    730.0,
    730.0,
    730.0,
    728.0,
    729.0,
    730.0,
    731.0,
    732.0,
    733.0,
    734.0,
    732.0,
    732.0,
    733.0,
    731.0,
    731.0,
    730.0,
    730.0,
    731.0,
    731.0,
    731.0,
    730.0,
    729.0,
    730.0,
    730.0,
    729.0,
    730.0,
    731.0,
    730.0,
    728.0,
    729.0,
    729.0,
    730.0,
    730.0,
    731.0,
    732.0,
    731.0,
    729.0,
    730.0,
    732.0,
    733.0,
    731.0,
    729.0,
    728.0,
    729.0,
    730.0,
    732.0,
    731.0,
    731.0,
    731.0,
    730.0,
    730.0,
    730.0,
    729.0,
    729.0,
    731.0,
    730.0,
    728.0,
    729.0,
    731.0,
    729.0,
    731.0,
    729.0,
    729.0,
    729.0,
    729.0,
    730.0,
    730.0,
    731.0,
    730.0,
    732.0,
    733.0,
    734.0,
    731.0,
    731.0,
    732.0,
    732.0,
    731.0,
    731.0,
    730.0,
    730.0,
    730.0,
