{
  "AcquisitionMatrixPE": 100,
  "AcquisitionNumber": 1,
  "AcquisitionTime": "13:38:6.930000",
  "BandwidthPerPixelPhaseEncode": 18.519,
  "BaseResolution": 100,
  "BodyPartExamined": "BRAIN",
  "ConsistencyInfo": "N4_VE11C_LATEST_20160120",
  "ConversionSoftware": "dcm2niix",
  "ConversionSoftwareVersion": "v1.0.20180622 GCC4.9.2",
  "DerivedVendorReportedEchoSpacing": 0.000539986,
  "DeviceSerialNumber": "166078",
  "DwellTime": 2.1e-06,
  "EchoTime": 0.034,
  "EchoTrainLength": 100,
  "EffectiveEchoSpacing": 0.000539986,
  "FlipAngle": 90,
  "ImageOrientationPatientDICOM": [0.999962, 0.00193335, 0.00850967, -2.73757e-09, 0.975149, -0.221548],
  "ImageType": [
    "ORIGINAL",
    "PRIMARY",
    "M",
    "ND",
    "MOSAIC"
],
  "InPlanePhaseEncodingDirectionDICOM": "COL",
  "InstitutionAddress": "Street_StreetNo_Bei_Jing_District_CN_ZIP",
  "InstitutionName": "BeiJing_Normal_University",
  "InstitutionalDepartmentName": "Department",
  "MRAcquisitionType": "2D",
  "MagneticFieldStrength": 3,
  "Manufacturer": "Siemens",
  "ManufacturersModelName": "Prisma",
  "Modality": "MR",
  "MultibandAccelerationFactor": 3,
  "PartialFourier": 1,
  "PatientPosition": "HFS",
  "PercentPhaseFOV": 100,
  "PhaseEncodingDirection": "j-",
  "PhaseEncodingSteps": 100,
  "PhaseResolution": 1,
  "PixelBandwidth": 2380,
  "ProcedureStepDescription": "BNU_P2018_64CH_Zhen.ZongLei",
  "ProtocolName": "bold_100x100_s3_2x2x2_static_256",
  "PulseSequenceDetails": "%SiemensSeq%_ep2d_bold",
  "ReceiveCoilActiveElements": "HC1-7;NC1",
  "ReceiveCoilName": "HeadNeck_64",
  "ReconMatrixPE": 100,
  "RepetitionTime": 2,
  "SAR": 0.0768872,
  "ScanOptions": "FS",
  "ScanningSequence": "EP",
  "SequenceName": "_epfid2d1_100",
  "SequenceVariant": "SK",
  "SeriesDescription": "bold_100x100_s3_2x2x2_static_256",
  "SeriesNumber": 6,
  "ShimSetting": [-5463, -11511, -1295, 471, -65, -229, -93, 55],
  "SliceThickness": 2,
  "SliceTiming": [1.485, 0, 0.99, 0.0825, 1.0725, 0.165, 1.155, 0.2475, 1.2375, 0.33, 1.32, 0.4125, 1.4025, 0.5775, 1.5675, 0.66, 1.65, 0.7425, 1.7325, 0.825, 1.815, 0.9075, 1.8975, 0.495, 1.485, 0, 0.99, 0.0825, 1.0725, 0.165, 1.155, 0.2475, 1.2375, 0.33, 1.32, 0.4125, 1.4025, 0.5775, 1.5675, 0.66, 1.65, 0.7425, 1.7325, 0.825, 1.815, 0.9075, 1.8975, 0.495, 1.485, 0, 0.99, 0.0825, 1.0725, 0.165, 1.155, 0.2475, 1.2375, 0.33, 1.32, 0.4125, 1.4025, 0.5775, 1.5675, 0.66, 1.65, 0.7425, 1.7325, 0.825, 1.815, 0.9075, 1.8975, 0.495],
  "SoftwareVersions": "syngo_MR_E11",
  "SpacingBetweenSlices": 2,
  "StationName": "AWP166078",
  "TaskName": "naturalvision",
  "TotalReadoutTime": 0.0534586,
  "TxRefAmp": 218.717,
  "dcmmeta_affine": [
    [-1.999923825263977, -5.475131903409647e-09, 0.017453065142035484, 101.54609680175781],
    [-0.003866705810651183, 1.9502986669540405, -0.4430801272392273, -77.69586944580078],
    [0.017019344493746758, 0.44309699535369873, 1.95022451877594, -102.74598693847656],
    [0.0, 0.0, 0.0, 1.0]
],
  "dcmmeta_reorient_transform": [
    [0.0, -1.0, 0.0, 99.0],
    [1.0, 0.0, 0.0, 0.0],
    [0.0, 0.0, 1.0, 0.0],
    [0.0, 0.0, 0.0, 1.0]
],
  "dcmmeta_shape": [100, 100, 72, 256],
  "dcmmeta_slice_dim": 2,
  "dcmmeta_version": 0.6,
  "global": {
    "const": {
      "AcquisitionMatrix": [100, 0, 0, 100],
      "AngioFlag": "N",
      "BitsAllocated": 16,
      "BitsStored": 12,
      "BodyPartExamined": "BRAIN",
      "Columns": 900,
      "EchoNumbers": 1,
      "EchoTime": 34.0,
      "EchoTrainLength": 100,
      "FlipAngle": 90.0,
      "HighBit": 11,
      "ImageOrientationPatient": [0.99996192308933, 0.00193335288668, 0.00850967203305, -2.737566e-09, 0.97514935360807, -0.2215485006895],
      "ImagePositionPatient": [-901.5156357625, -897.04986423578, 111.55168010475],
      "ImageType": [
        "ORIGINAL",
        "PRIMARY",
        "M",
        "ND",
        "MOSAIC"
],
      "ImagedNucleus": "1H",
      "ImagingFrequency": 123.257746,
      "InPlanePhaseEncodingDirection": "COL",
      "MRAcquisitionType": "2D",
      "MagneticFieldStrength": 3.0,
      "Manufacturer": "SIEMENS",
      "ManufacturerModelName": "Prisma",
      "Modality": "MR",
      "NumberOfAverages": 1.0,
      "NumberOfPhaseEncodingSteps": 100,
      "PercentPhaseFieldOfView": 100.0,
      "PercentSampling": 100.0,
      "PerformedProcedureStepStartTime": "130903.284000",
      "PhotometricInterpretation": "MONOCHROME2",
      "PixelBandwidth": 2380.0,
      "PixelRepresentation": 0,
      "PixelSpacing": [2.0, 2.0],
      "ProtocolName": "bold_100x100_s3_2x2x2_static_256",
      "RepetitionTime": 2000.0,
      "Rows": 900,
      "SAR": 0.0768872168111,
      "SamplesPerPixel": 1,
      "ScanOptions": "FS",
      "ScanningSequence": "EP",
      "SequenceName": "*epfid2d1_100",
      "SequenceVariant": "SK",
      "SeriesDescription": "bold_100x100_s3_2x2x2_static_256",
      "SeriesNumber": 6,
      "SeriesTime": "133808.886000",
      "SliceLocation": -82.089972678415,
      "SliceThickness": 2.0,
      "SmallestImagePixelValue": 0,
      "SoftwareVersions": "syngo MR E11",
      "SpacingBetweenSlices": 2.0000000415733,
      "SpecificCharacterSet": "ISO_IR 100",
      "StudyID": "1",
      "StudyTime": "130903.184000",
      "TransmitCoilName": "Body",
      "VariableFlipAngleFlag": "N",
      "WindowCenterWidthExplanation": "Algo1",
      "dBdt": 0.0},
    "slices": {}
  },
  "time": {
    "samples": {
      "AcquisitionNumber": [1, 2, 3, 4, 5, 6, 7, 8, 9, 10, 11, 12, 13, 14, 15, 16, 17, 18, 19, 20, 21, 22, 23, 24, 25, 26, 27, 28, 29, 30, 31, 32, 33, 34, 35, 36, 37, 38, 39, 40, 41, 42, 43, 44, 45, 46, 47, 48, 49, 50, 51, 52, 53, 54, 55, 56, 57, 58, 59, 60, 61, 62, 63, 64, 65, 66, 67, 68, 69, 70, 71, 72, 73, 74, 75, 76, 77, 78, 79, 80, 81, 82, 83, 84, 85, 86, 87, 88, 89, 90, 91, 92, 93, 94, 95, 96, 97, 98, 99, 100, 101, 102, 103, 104, 105, 106, 107, 108, 109, 110, 111, 112, 113, 114, 115, 116, 117, 118, 119, 120, 121, 122, 123, 124, 125, 126, 127, 128, 129, 130, 131, 132, 133, 134, 135, 136, 137, 138, 139, 140, 141, 142, 143, 144, 145, 146, 147, 148, 149, 150, 151, 152, 153, 154, 155, 156, 157, 158, 159, 160, 161, 162, 163, 164, 165, 166, 167, 168, 169, 170, 171, 172, 173, 174, 175, 176, 177, 178, 179, 180, 181, 182, 183, 184, 185, 186, 187, 188, 189, 190, 191, 192, 193, 194, 195, 196, 197, 198, 199, 200, 201, 202, 203, 204, 205, 206, 207, 208, 209, 210, 211, 212, 213, 214, 215, 216, 217, 218, 219, 220, 221, 222, 223, 224, 225, 226, 227, 228, 229, 230, 231, 232, 233, 234, 235, 236, 237, 238, 239, 240, 241, 242, 243, 244, 245, 246, 247, 248, 249, 250, 251, 252, 253, 254, 255, 256],
      "AcquisitionTime": ["133806.930000", "133808.930000", "133810.930000", "133812.930000", "133814.930000", "133816.930000", "133818.930000", "133820.930000", "133822.930000", "133824.930000", "133826.930000", "133828.930000", "133830.930000", "133832.930000", "133834.930000", "133836.930000", "133838.930000", "133840.930000", "133842.930000", "133844.930000", "133846.930000", "133848.930000", "133850.930000", "133852.930000", "133854.930000", "133856.930000", "133858.930000", "133900.930000", "133902.930000", "133904.930000", "133906.930000", "133908.930000", "133910.930000", "133912.930000", "133914.930000", "133916.930000", "133918.930000", "133920.930000", "133922.930000", "133924.930000", "133926.930000", "133928.930000", "133930.930000", "133932.930000", "133934.930000", "133936.930000", "133938.930000", "133940.930000", "133942.930000", "133944.930000", "133946.930000", "133948.930000", "133950.930000", "133952.930000", "133954.930000", "133956.930000", "133958.930000", "134000.930000", "134002.930000", "134004.930000", "134006.930000", "134008.930000", "134010.930000", "134012.930000", "134014.930000", "134016.930000", "134018.930000", "134020.930000", "134022.930000", "134024.930000", "134026.930000", "134028.930000", "134030.930000", "134032.930000", "134034.930000", "134036.930000", "134038.930000", "134040.930000", "134042.930000", "134044.930000", "134046.930000", "134048.930000", "134050.930000", "134052.930000", "134054.930000", "134056.930000", "134058.930000", "134100.930000", "134102.930000", "134104.930000", "134106.930000", "134108.930000", "134110.930000", "134112.930000", "134114.930000", "134116.930000", "134118.930000", "134120.930000", "134122.930000", "134124.930000", "134126.930000", "134128.930000", "134130.930000", "134132.930000", "134134.930000", "134136.930000", "134138.930000", "134140.930000", "134142.930000", "134144.930000", "134146.930000", "134148.930000", "134150.930000", "134152.930000", "134154.930000", "134156.930000", "134158.930000", "134200.930000", "134202.930000", "134204.930000", "134206.930000", "134208.930000", "134210.930000", "134212.930000", "134214.930000", "134216.930000", "134218.930000", "134220.930000", "134222.930000", "134224.930000", "134226.930000", "134228.930000", "134230.930000", "134232.930000", "134234.930000", "134236.930000", "134238.930000", "134240.930000", "134242.930000", "134244.930000", "134246.930000", "134248.930000", "134250.930000", "134252.930000", "134254.930000", "134256.930000", "134258.930000", "134300.930000", "134302.930000", "134304.930000", "134306.930000", "134308.930000", "134310.930000", "134312.930000", "134314.930000", "134316.930000", "134318.930000", "134320.930000", "134322.930000", "134324.930000", "134326.930000", "134328.930000", "134330.930000", "134332.930000", "134334.930000", "134336.930000", "134338.930000", "134340.930000", "134342.930000", "134344.930000", "134346.930000", "134348.930000", "134350.930000", "134352.930000", "134354.930000", "134356.930000", "134358.930000", "134400.930000", "134402.930000", "134404.930000", "134406.930000", "134408.930000", "134410.930000", "134412.930000", "134414.930000", "134416.930000", "134418.930000", "134420.930000", "134422.930000", "134424.930000", "134426.930000", "134428.930000", "134430.930000", "134432.930000", "134434.930000", "134436.930000", "134438.930000", "134440.930000", "134442.930000", "134444.930000", "134446.930000", "134448.930000", "134450.930000", "134452.930000", "134454.930000", "134456.930000", "134458.930000", "134500.930000", "134502.930000", "134504.930000", "134506.930000", "134508.930000", "134510.930000", "134512.930000", "134514.930000", "134516.930000", "134518.930000", "134520.930000", "134522.930000", "134524.930000", "134526.930000", "134528.930000", "134530.930000", "134532.930000", "134534.930000", "134536.930000", "134538.930000", "134540.930000", "134542.930000", "134544.930000", "134546.930000", "134548.930000", "134550.930000", "134552.930000", "134554.930000", "134556.930000", "134558.930000", "134600.930000", "134602.930000", "134604.930000", "134606.930000", "134608.930000", "134610.930000", "134612.930000", "134614.930000", "134616.930000", "134618.930000", "134620.930000", "134622.930000", "134624.930000", "134626.930000", "134628.930000", "134630.930000", "134632.930000", "134634.930000", "134636.930000"],
      "ContentTime": ["133808.890000", "133810.386000", "133812.386000", "133814.385000", "133816.385000", "133818.385000", "133820.384000", "133822.385000", "133824.385000", "133826.385000", "133828.385000", "133830.386000", "133832.386000", "133834.385000", "133836.385000", "133838.384000", "133840.386000", "133842.385000", "133844.385000", "133846.385000", "133848.385000", "133850.385000", "133852.385000", "133854.385000", "133856.384000", "133858.386000", "133900.385000", "133902.385000", "133904.385000", "133906.386000", "133908.385000", "133910.385000", "133912.384000", "133914.384000", "133916.386000", "133918.385000", "133920.386000", "133922.385000", "133924.386000", "133926.385000", "133928.385000", "133930.384000", "133932.385000", "133934.385000", "133936.386000", "133938.386000", "133940.385000", "133942.386000", "133944.386000", "133946.385000", "133948.385000", "133950.385000", "133952.385000", "133954.385000", "133956.385000", "133958.386000", "134000.386000", "134002.386000", "134004.386000", "134006.384000", "134008.385000", "134010.386000", "134012.385000", "134014.385000", "134016.385000", "134018.385000", "134020.385000", "134022.384000", "134024.384000", "134026.385000", "134028.385000", "134030.385000", "134032.386000", "134034.385000", "134036.385000", "134038.385000", "134040.385000", "134042.386000", "134044.386000", "134046.386000", "134048.385000", "134050.386000", "134052.385000", "134054.385000", "134056.386000", "134058.384000", "134100.385000", "134102.385000", "134104.385000", "134106.385000", "134108.385000", "134110.385000", "134112.385000", "134114.385000", "134116.384000", "134118.385000", "134120.385000", "134122.385000", "134124.385000", "134126.385000", "134128.385000", "134130.386000", "134132.384000", "134134.885000", "134136.385000", "134138.385000", "134140.385000", "134142.385000", "134144.385000", "134146.385000", "134148.385000", "134150.384000", "134152.385000", "134154.385000", "134156.386000", "134158.385000", "134200.386000", "134202.385000", "134204.386000", "134206.386000", "134208.385000", "134210.386000", "134212.386000", "134214.385000", "134216.385000", "134218.385000", "134220.385000", "134222.385000", "134224.386000", "134226.385000", "134228.385000", "134230.385000", "134232.385000", "134234.385000", "134236.385000", "134238.385000", "134240.386000", "134242.385000", "134244.384000", "134246.386000", "134248.386000", "134250.386000", "134252.385000", "134254.386000", "134256.385000", "134258.386000", "134300.384000", "134302.385000", "134304.385000", "134306.385000", "134308.385000", "134310.385000", "134312.385000", "134314.386000", "134316.385000", "134318.385000", "134320.386000", "134322.386000", "134324.386000", "134326.386000", "134328.385000", "134330.386000", "134332.386000", "134334.386000", "134336.384000", "134338.386000", "134340.385000", "134342.385000", "134344.385000", "134346.385000", "134348.386000", "134350.386000", "134352.384000", "134354.384000", "134356.385000", "134358.385000", "134400.386000", "134402.386000", "134404.385000", "134406.385000", "134408.385000", "134410.384000", "134412.386000", "134414.385000", "134416.386000", "134418.386000", "134420.385000", "134422.385000", "134424.386000", "134426.385000", "134428.385000", "134430.386000", "134432.386000", "134434.386000", "134436.386000", "134438.386000", "134440.386000", "134442.386000", "134444.386000", "134446.384000", "134448.385000", "134450.385000", "134452.385000", "134454.385000", "134456.385000", "134458.385000", "134500.386000", "134502.385000", "134504.385000", "134506.385000", "134508.386000", "134510.386000", "134512.386000", "134514.386000", "134516.386000", "134518.385000", "134520.385000", "134522.386000", "134524.386000", "134526.386000", "134528.386000", "134530.386000", "134532.386000", "134534.385000", "134536.385000", "134538.384000", "134540.386000", "134542.385000", "134544.385000", "134546.386000", "134548.386000", "134550.385000", "134552.386000", "134554.384000", "134556.385000", "134558.386000", "134600.385000", "134602.386000", "134604.386000", "134606.386000", "134608.385000", "134610.386000", "134612.401000", "134614.386000", "134616.886000", "134618.386000", "134620.385000", "134622.385000", "134624.386000", "134626.386000", "134628.386000", "134630.384000", "134632.385000", "134634.385000", "134636.385000", "134638.264000"],
      "InstanceCreationTime": ["133808.890000", "133810.386000", "133812.386000", "133814.385000", "133816.385000", "133818.385000", "133820.384000", "133822.385000", "133824.385000", "133826.385000", "133828.385000", "133830.386000", "133832.386000", "133834.385000", "133836.385000", "133838.384000", "133840.386000", "133842.385000", "133844.385000", "133846.385000", "133848.385000", "133850.385000", "133852.385000", "133854.385000", "133856.384000", "133858.386000", "133900.385000", "133902.385000", "133904.385000", "133906.386000", "133908.385000", "133910.385000", "133912.384000", "133914.384000", "133916.386000", "133918.385000", "133920.386000", "133922.385000", "133924.386000", "133926.385000", "133928.385000", "133930.384000", "133932.385000", "133934.385000", "133936.386000", "133938.386000", "133940.385000", "133942.386000", "133944.386000", "133946.385000", "133948.385000", "133950.385000", "133952.385000", "133954.385000", "133956.385000", "133958.386000", "134000.386000", "134002.386000", "134004.386000", "134006.384000", "134008.385000", "134010.386000", "134012.385000", "134014.385000", "134016.385000", "134018.385000", "134020.385000", "134022.384000", "134024.384000", "134026.385000", "134028.385000", "134030.385000", "134032.386000", "134034.385000", "134036.385000", "134038.385000", "134040.385000", "134042.386000", "134044.386000", "134046.386000", "134048.385000", "134050.386000", "134052.385000", "134054.385000", "134056.386000", "134058.384000", "134100.385000", "134102.385000", "134104.385000", "134106.385000", "134108.385000", "134110.385000", "134112.385000", "134114.385000", "134116.384000", "134118.385000", "134120.385000", "134122.385000", "134124.385000", "134126.385000", "134128.385000", "134130.386000", "134132.384000", "134134.885000", "134136.385000", "134138.385000", "134140.385000", "134142.385000", "134144.385000", "134146.385000", "134148.385000", "134150.384000", "134152.385000", "134154.385000", "134156.386000", "134158.385000", "134200.386000", "134202.385000", "134204.386000", "134206.386000", "134208.385000", "134210.386000", "134212.386000", "134214.385000", "134216.385000", "134218.385000", "134220.385000", "134222.385000", "134224.386000", "134226.385000", "134228.385000", "134230.385000", "134232.385000", "134234.385000", "134236.385000", "134238.385000", "134240.386000", "134242.385000", "134244.384000", "134246.386000", "134248.386000", "134250.386000", "134252.385000", "134254.386000", "134256.385000", "134258.386000", "134300.384000", "134302.385000", "134304.385000", "134306.385000", "134308.385000", "134310.385000", "134312.385000", "134314.386000", "134316.385000", "134318.385000", "134320.386000", "134322.386000", "134324.386000", "134326.386000", "134328.385000", "134330.386000", "134332.386000", "134334.386000", "134336.384000", "134338.386000", "134340.385000", "134342.385000", "134344.385000", "134346.385000", "134348.386000", "134350.386000", "134352.384000", "134354.384000", "134356.385000", "134358.385000", "134400.386000", "134402.386000", "134404.385000", "134406.385000", "134408.385000", "134410.384000", "134412.386000", "134414.385000", "134416.386000", "134418.386000", "134420.385000", "134422.385000", "134424.386000", "134426.385000", "134428.385000", "134430.386000", "134432.386000", "134434.386000", "134436.386000", "134438.386000", "134440.386000", "134442.386000", "134444.386000", "134446.384000", "134448.385000", "134450.385000", "134452.385000", "134454.385000", "134456.385000", "134458.385000", "134500.386000", "134502.385000", "134504.385000", "134506.385000", "134508.386000", "134510.386000", "134512.386000", "134514.386000", "134516.386000", "134518.385000", "134520.385000", "134522.386000", "134524.386000", "134526.386000", "134528.386000", "134530.386000", "134532.386000", "134534.385000", "134536.385000", "134538.384000", "134540.386000", "134542.385000", "134544.385000", "134546.386000", "134548.386000", "134550.385000", "134552.386000", "134554.384000", "134556.385000", "134558.386000", "134600.385000", "134602.386000", "134604.386000", "134606.386000", "134608.385000", "134610.386000", "134612.401000", "134614.386000", "134616.886000", "134618.386000", "134620.385000", "134622.385000", "134624.386000", "134626.386000", "134628.386000", "134630.384000", "134632.385000", "134634.385000", "134636.385000", "134638.264000"],
      "InstanceNumber": [1, 2, 3, 4, 5, 6, 7, 8, 9, 10, 11, 12, 13, 14, 15, 16, 17, 18, 19, 20, 21, 22, 23, 24, 25, 26, 27, 28, 29, 30, 31, 32, 33, 34, 35, 36, 37, 38, 39, 40, 41, 42, 43, 44, 45, 46, 47, 48, 49, 50, 51, 52, 53, 54, 55, 56, 57, 58, 59, 60, 61, 62, 63, 64, 65, 66, 67, 68, 69, 70, 71, 72, 73, 74, 75, 76, 77, 78, 79, 80, 81, 82, 83, 84, 85, 86, 87, 88, 89, 90, 91, 92, 93, 94, 95, 96, 97, 98, 99, 100, 101, 102, 103, 104, 105, 106, 107, 108, 109, 110, 111, 112, 113, 114, 115, 116, 117, 118, 119, 120, 121, 122, 123, 124, 125, 126, 127, 128, 129, 130, 131, 132, 133, 134, 135, 136, 137, 138, 139, 140, 141, 142, 143, 144, 145, 146, 147, 148, 149, 150, 151, 152, 153, 154, 155, 156, 157, 158, 159, 160, 161, 162, 163, 164, 165, 166, 167, 168, 169, 170, 171, 172, 173, 174, 175, 176, 177, 178, 179, 180, 181, 182, 183, 184, 185, 186, 187, 188, 189, 190, 191, 192, 193, 194, 195, 196, 197, 198, 199, 200, 201, 202, 203, 204, 205, 206, 207, 208, 209, 210, 211, 212, 213, 214, 215, 216, 217, 218, 219, 220, 221, 222, 223, 224, 225, 226, 227, 228, 229, 230, 231, 232, 233, 234, 235, 236, 237, 238, 239, 240, 241, 242, 243, 244, 245, 246, 247, 248, 249, 250, 251, 252, 253, 254, 255, 256],
      "LargestImagePixelValue": [2504, 2503, 2493, 2498, 2473, 2471, 2489, 2498, 2567, 2504, 2503, 2612, 2577, 2774, 2529, 2513, 2694, 2486, 2518, 2498, 2657, 2560, 2531, 2546, 2539, 2619, 2724, 2682, 2509, 2511, 2535, 2538, 2516, 2568, 2565, 2529, 2525, 2525, 2574, 2534, 2581, 2568, 2547, 2650, 2488, 2529, 2525, 2529, 2501, 2509, 2529, 2535, 2503, 2520, 2532, 2534, 2516, 2492, 2519, 2545, 2555, 2534, 2523, 2510, 2530, 2534, 2542, 2536, 2535, 2507, 2498, 2510, 2537, 2593, 2549, 2542, 2531, 2526, 2529, 2527, 2484, 2501, 2507, 2517, 2571, 2586, 2557, 2547, 2546, 2567, 2546, 2532, 2537, 2531, 2529, 2494, 2585, 2562, 2556, 2581, 2556, 2583, 2589, 2546, 2498, 2523, 2582, 2556, 2559, 2556, 2558, 2597, 2592, 2556, 2562, 2553, 2534, 2542, 2558, 2544, 2582, 2572, 2544, 2520, 2536, 2554, 2588, 2605, 2551, 2628, 2562, 2595, 2573, 2581, 2569, 2578, 2574, 2583, 2594, 2592, 2554, 2568, 2581, 2586, 2607, 2571, 2541, 2591, 2561, 2586, 2597, 2580, 2555, 2575, 2576, 2605, 2637, 2597, 2601, 2586, 2597, 2591, 2591, 2577, 2562, 2574, 2573, 2581, 2570, 2577, 2577, 2581, 2573, 2595, 2562, 2543, 2530, 2543, 2556, 2586, 2603, 2605, 2570, 2608, 2590, 2555, 2540, 2564, 2552, 2566, 2576, 2586, 2572, 2569, 2578, 2582, 2568, 2555, 2551, 2572, 2571, 2539, 2536, 2589, 2595, 2602, 2569, 2542, 2539, 2561, 2549, 2550, 2520, 2574, 2587, 2553, 2553, 2587, 2557, 2582, 2570, 2574, 2548, 2580, 2526, 2523, 2544, 2566, 2564, 2579, 2552, 2599, 2559, 2557, 2547, 2540, 2490, 2544, 2525, 2542, 2547, 2548, 2580, 2561, 2553, 2517, 2528, 2496, 2499, 2522, 2532, 2522, 2546, 2520, 2529, 2521],
      "WindowCenter": [734.0, 733.0, 732.0, 733.0, 732.0, 733.0, 734.0, 736.0, 736.0, 735.0, 737.0, 740.0, 740.0, 740.0, 736.0, 736.0, 737.0, 734.0, 735.0, 735.0, 737.0, 736.0, 737.0, 737.0, 737.0, 738.0, 739.0, 737.0, 736.0, 736.0, 736.0, 737.0, 736.0, 736.0, 736.0, 735.0, 734.0, 734.0, 736.0, 735.0, 736.0, 735.0, 735.0, 736.0, 734.0, 734.0, 735.0, 735.0, 735.0, 735.0, 734.0, 733.0, 734.0, 735.0, 735.0, 735.0, 734.0, 734.0, 735.0, 736.0, 736.0, 734.0, 733.0, 733.0, 733.0, 733.0, 735.0, 735.0, 734.0, 733.0, 733.0, 733.0, 735.0, 736.0, 735.0, 735.0, 735.0, 735.0, 733.0, 733.0, 733.0, 733.0, 733.0, 733.0, 736.0, 738.0, 735.0, 733.0, 734.0, 735.0, 735.0, 736.0, 735.0, 735.0, 735.0, 735.0, 736.0, 734.0, 734.0, 735.0, 736.0, 735.0, 734.0, 733.0, 732.0, 733.0, 735.0, 735.0, 735.0, 734.0, 735.0, 736.0, 736.0, 735.0, 736.0, 736.0, 735.0, 735.0, 736.0, 736.0, 737.0, 737.0, 735.0, 734.0, 734.0, 737.0, 738.0, 737.0, 735.0, 735.0, 735.0, 735.0, 736.0, 736.0, 735.0, 736.0, 736.0, 735.0, 736.0, 736.0, 735.0, 734.0, 736.0, 735.0, 734.0, 734.0, 734.0, 735.0, 734.0, 735.0, 735.0, 734.0, 734.0, 734.0, 734.0, 734.0, 735.0, 736.0, 737.0, 736.0, 736.0, 735.0, 736.0, 735.0, 735.0, 736.0, 736.0, 735.0, 734.0, 735.0, 735.0, 734.0, 735.0, 736.0, 735.0, 734.0, 734.0, 734.0, 736.0, 736.0, 737.0, 737.0, 736.0, 736.0, 735.0, 734.0, 734.0, 733.0, 733.0, 733.0, 734.0, 733.0, 733.0, 733.0, 734.0, 734.0, 734.0, 734.0, 735.0, 735.0, 733.0, 733.0, 733.0, 733.0, 734.0, 735.0, 734.0, 733.0, 732.0, 732.0, 733.0, 733.0, 733.0, 734.0, 733.0, 732.0, 732.0, 733.0, 734.0, 734.0, 734.0, 734.0, 734.0, 733.0, 732.0, 733.0, 734.0, 734.0, 733.0, 733.0, 734.0, 734.0, 735.0, 735.0, 734.0, 734.0, 733.0, 735.0, 735.0, 734.0, 735.0, 736.0, 736.0, 734.0, 733.0, 732.0, 733.0, 732.0, 733.0, 733.0, 735.0, 734.0, 734.0, 733.0, 733.0, 732.0],
      "WindowWidth": [1563.0, 1561.0, 1559.0, 1560.0, 1559.0, 1559.0, 1563.0, 1567.0, 1568.0, 1567.0, 1572.0, 1579.0, 1580.0, 1577.0, 1568.0, 1568.0, 1572.0, 1565.0, 1567.0, 1566.0, 1570.0, 1569.0, 1570.0, 1571.0, 1572.0, 1574.0, 1575.0, 1571.0, 1568.0, 1568.0, 1569.0, 1571.0, 1569.0, 1569.0, 1569.0, 1566.0, 1565.0, 1565.0, 1568.0, 1567.0, 1568.0, 1567.0, 1567.0, 1568.0, 1563.0, 1565.0, 1567.0, 1567.0, 1567.0, 1566.0, 1563.0, 1562.0, 1563.0, 1565.0, 1568.0, 1566.0, 1563.0, 1564.0, 1567.0, 1570.0, 1569.0, 1564.0, 1560.0, 1560.0, 1561.0, 1562.0, 1566.0, 1565.0, 1562.0, 1562.0, 1562.0, 1562.0, 1566.0, 1569.0, 1567.0, 1566.0, 1567.0, 1565.0, 1559.0, 1560.0, 1560.0, 1560.0, 1562.0, 1562.0, 1569.0, 1573.0, 1567.0, 1562.0, 1563.0, 1565.0, 1567.0, 1568.0, 1564.0, 1565.0, 1565.0, 1565.0, 1568.0, 1564.0, 1562.0, 1565.0, 1569.0, 1566.0, 1563.0, 1560.0, 1557.0, 1560.0, 1565.0, 1566.0, 1565.0, 1564.0, 1566.0, 1568.0, 1567.0, 1565.0, 1568.0, 1568.0, 1565.0, 1565.0, 1569.0, 1568.0, 1572.0, 1572.0, 1565.0, 1562.0, 1564.0, 1570.0, 1573.0, 1571.0, 1565.0, 1566.0, 1565.0, 1567.0, 1568.0, 1567.0, 1566.0, 1568.0, 1569.0, 1565.0, 1567.0, 1568.0, 1566.0, 1564.0, 1568.0, 1567.0, 1564.0, 1563.0, 1564.0, 1565.0, 1564.0, 1565.0, 1566.0, 1564.0, 1562.0, 1562.0, 1563.0, 1564.0, 1567.0, 1568.0, 1570.0, 1570.0, 1568.0, 1567.0, 1568.0, 1566.0, 1566.0, 1568.0, 1568.0, 1565.0, 1564.0, 1566.0, 1566.0, 1565.0, 1567.0, 1570.0, 1566.0, 1563.0, 1564.0, 1565.0, 1568.0, 1569.0, 1572.0, 1571.0, 1570.0, 1568.0, 1566.0, 1565.0, 1563.0, 1561.0, 1561.0, 1561.0, 1563.0, 1561.0, 1561.0, 1562.0, 1565.0, 1565.0, 1564.0, 1564.0, 1566.0, 1565.0, 1561.0, 1560.0, 1562.0, 1561.0, 1564.0, 1566.0, 1565.0, 1561.0, 1558.0, 1560.0, 1562.0, 1561.0, 1560.0, 1563.0, 1562.0, 1560.0, 1560.0, 1560.0, 1563.0, 1565.0, 1565.0, 1565.0, 1563.0, 1562.0, 1559.0, 1562.0, 1564.0, 1564.0, 1561.0, 1562.0, 1563.0, 1564.0, 1567.0, 1567.0, 1564.0, 1562.0, 1561.0, 1565.0, 1565.0, 1564.0, 1566.0, 1568.0, 1568.0, 1564.0, 1562.0, 1559.0, 1561.0, 1559.0, 1560.0, 1561.0, 1566.0, 1563.0, 1563.0, 1562.0, 1562.0, 1560.0]
    },
    "slices": {}
  }
}