{
  "AcquisitionMatrixPE": 100,
  "AcquisitionNumber": 1,
  "AcquisitionTime": "14:29:20.017500",
  "BandwidthPerPixelPhaseEncode": 18.519,
  "BaseResolution": 100,
  "BodyPartExamined": "BRAIN",
  "ConsistencyInfo": "N4_VE11C_LATEST_20160120",
  "ConversionSoftware": "dcm2niix",
  "ConversionSoftwareVersion": "v1.0.20180622 GCC4.9.2",
  "DerivedVendorReportedEchoSpacing": 0.000539986,
  "DeviceSerialNumber": "166078",
  "DwellTime": 2.1e-06,
  "EchoTime": 0.034,
  "EchoTrainLength": 100,
  "EffectiveEchoSpacing": 0.000539986,
  "FlipAngle": 90,
  "ImageOrientationPatientDICOM": [0.999962, 0.00193335, 0.00850967, -2.73757e-09, 0.975149, -0.221548],
  "ImageType": [
    "ORIGINAL",
    "PRIMARY",
    "M",
    "ND",
    "MOSAIC"
],
  "InPlanePhaseEncodingDirectionDICOM": "COL",
  "InstitutionAddress": "Street_StreetNo_Bei_Jing_District_CN_ZIP",
  "InstitutionName": "BeiJing_Normal_University",
  "InstitutionalDepartmentName": "Department",
  "MRAcquisitionType": "2D",
  "MagneticFieldStrength": 3,
  "Manufacturer": "Siemens",
  "ManufacturersModelName": "Prisma",
  "Modality": "MR",
  "MultibandAccelerationFactor": 3,
  "PartialFourier": 1,
  "PatientPosition": "HFS",
  "PercentPhaseFOV": 100,
  "PhaseEncodingDirection": "j-",
  "PhaseEncodingSteps": 100,
  "PhaseResolution": 1,
  "PixelBandwidth": 2380,
  "ProcedureStepDescription": "BNU_P2018_64CH_Zhen.ZongLei",
  "ProtocolName": "bold_100x100_s3_2x2x2_static_256",
  "PulseSequenceDetails": "%SiemensSeq%_ep2d_bold",
  "ReceiveCoilActiveElements": "HC1-7;NC1",
  "ReceiveCoilName": "HeadNeck_64",
  "ReconMatrixPE": 100,
  "RepetitionTime": 2,
  "SAR": 0.0768872,
  "ScanOptions": "FS",
  "ScanningSequence": "EP",
  "SequenceName": "_epfid2d1_100",
  "SequenceVariant": "SK",
  "SeriesDescription": "bold_100x100_s3_2x2x2_static_256",
  "SeriesNumber": 13,
  "ShimSetting": [-5463, -11511, -1295, 471, -65, -229, -93, 55],
  "SliceThickness": 2,
  "SliceTiming": [1.485, 0, 0.99, 0.0825, 1.0725, 0.165, 1.155, 0.2475, 1.2375, 0.33, 1.32, 0.4125, 1.4025, 0.5775, 1.5675, 0.66, 1.65, 0.7425, 1.7325, 0.825, 1.815, 0.9075, 1.8975, 0.495, 1.485, 0, 0.99, 0.0825, 1.0725, 0.165, 1.155, 0.2475, 1.2375, 0.33, 1.32, 0.4125, 1.4025, 0.5775, 1.5675, 0.66, 1.65, 0.7425, 1.7325, 0.825, 1.815, 0.9075, 1.8975, 0.495, 1.485, 0, 0.99, 0.0825, 1.0725, 0.165, 1.155, 0.2475, 1.2375, 0.33, 1.32, 0.4125, 1.4025, 0.5775, 1.5675, 0.66, 1.65, 0.7425, 1.7325, 0.825, 1.815, 0.9075, 1.8975, 0.495],
  "SoftwareVersions": "syngo_MR_E11",
  "SpacingBetweenSlices": 2,
  "StationName": "AWP166078",
  "TaskName": "naturalvision",
  "TotalReadoutTime": 0.0534586,
  "TxRefAmp": 218.717,
  "dcmmeta_affine": [
    [-1.999923825263977, -5.475131903409647e-09, 0.017453065142035484, 101.54609680175781],
    [-0.003866705810651183, 1.9502986669540405, -0.4430801272392273, -77.69586944580078],
    [0.017019344493746758, 0.44309699535369873, 1.95022451877594, -102.74598693847656],
    [0.0, 0.0, 0.0, 1.0]
],
  "dcmmeta_reorient_transform": [
    [0.0, -1.0, 0.0, 99.0],
    [1.0, 0.0, 0.0, 0.0],
    [0.0, 0.0, 1.0, 0.0],
    [0.0, 0.0, 0.0, 1.0]
],
  "dcmmeta_shape": [100, 100, 72, 256],
  "dcmmeta_slice_dim": 2,
  "dcmmeta_version": 0.6,
  "global": {
    "const": {
      "AcquisitionMatrix": [100, 0, 0, 100],
      "AngioFlag": "N",
      "BitsAllocated": 16,
      "BitsStored": 12,
      "BodyPartExamined": "BRAIN",
      "Columns": 900,
      "EchoNumbers": 1,
      "EchoTime": 34.0,
      "EchoTrainLength": 100,
      "FlipAngle": 90.0,
      "HighBit": 11,
      "ImageOrientationPatient": [0.99996192308933, 0.00193335288668, 0.00850967203305, -2.737566e-09, 0.97514935360807, -0.2215485006895],
      "ImagePositionPatient": [-901.5156357625, -897.04986423578, 111.55168010475],
      "ImageType": [
        "ORIGINAL",
        "PRIMARY",
        "M",
        "ND",
        "MOSAIC"
],
      "ImagedNucleus": "1H",
      "ImagingFrequency": 123.257755,
      "InPlanePhaseEncodingDirection": "COL",
      "MRAcquisitionType": "2D",
      "MagneticFieldStrength": 3.0,
      "Manufacturer": "SIEMENS",
      "ManufacturerModelName": "Prisma",
      "Modality": "MR",
      "NumberOfAverages": 1.0,
      "NumberOfPhaseEncodingSteps": 100,
      "PercentPhaseFieldOfView": 100.0,
      "PercentSampling": 100.0,
      "PerformedProcedureStepStartTime": "130903.284000",
      "PhotometricInterpretation": "MONOCHROME2",
      "PixelBandwidth": 2380.0,
      "PixelRepresentation": 0,
      "PixelSpacing": [2.0, 2.0],
      "ProtocolName": "bold_100x100_s3_2x2x2_static_256",
      "RepetitionTime": 2000.0,
      "Rows": 900,
      "SAR": 0.0768872168111,
      "SamplesPerPixel": 1,
      "ScanOptions": "FS",
      "ScanningSequence": "EP",
      "SequenceName": "*epfid2d1_100",
      "SequenceVariant": "SK",
      "SeriesDescription": "bold_100x100_s3_2x2x2_static_256",
      "SeriesNumber": 13,
      "SeriesTime": "142922.425000",
      "SliceLocation": -82.089972678415,
      "SliceThickness": 2.0,
      "SmallestImagePixelValue": 0,
      "SoftwareVersions": "syngo MR E11",
      "SpacingBetweenSlices": 2.0000000415733,
      "SpecificCharacterSet": "ISO_IR 100",
      "StudyID": "1",
      "StudyTime": "130903.184000",
      "TransmitCoilName": "Body",
      "VariableFlipAngleFlag": "N",
      "WindowCenterWidthExplanation": "Algo1",
      "dBdt": 0.0},
    "slices": {}
  },
  "time": {
    "samples": {
      "AcquisitionNumber": [1, 2, 3, 4, 5, 6, 7, 8, 9, 10, 11, 12, 13, 14, 15, 16, 17, 18, 19, 20, 21, 22, 23, 24, 25, 26, 27, 28, 29, 30, 31, 32, 33, 34, 35, 36, 37, 38, 39, 40, 41, 42, 43, 44, 45, 46, 47, 48, 49, 50, 51, 52, 53, 54, 55, 56, 57, 58, 59, 60, 61, 62, 63, 64, 65, 66, 67, 68, 69, 70, 71, 72, 73, 74, 75, 76, 77, 78, 79, 80, 81, 82, 83, 84, 85, 86, 87, 88, 89, 90, 91, 92, 93, 94, 95, 96, 97, 98, 99, 100, 101, 102, 103, 104, 105, 106, 107, 108, 109, 110, 111, 112, 113, 114, 115, 116, 117, 118, 119, 120, 121, 122, 123, 124, 125, 126, 127, 128, 129, 130, 131, 132, 133, 134, 135, 136, 137, 138, 139, 140, 141, 142, 143, 144, 145, 146, 147, 148, 149, 150, 151, 152, 153, 154, 155, 156, 157, 158, 159, 160, 161, 162, 163, 164, 165, 166, 167, 168, 169, 170, 171, 172, 173, 174, 175, 176, 177, 178, 179, 180, 181, 182, 183, 184, 185, 186, 187, 188, 189, 190, 191, 192, 193, 194, 195, 196, 197, 198, 199, 200, 201, 202, 203, 204, 205, 206, 207, 208, 209, 210, 211, 212, 213, 214, 215, 216, 217, 218, 219, 220, 221, 222, 223, 224, 225, 226, 227, 228, 229, 230, 231, 232, 233, 234, 235, 236, 237, 238, 239, 240, 241, 242, 243, 244, 245, 246, 247, 248, 249, 250, 251, 252, 253, 254, 255, 256],
      "AcquisitionTime": ["142920.017500", "142922.017500", "142924.017500", "142926.017500", "142928.017500", "142930.017500", "142932.017500", "142934.017500", "142936.017500", "142938.017500", "142940.017500", "142942.017500", "142944.017500", "142946.017500", "142948.017500", "142950.017500", "142952.017500", "142954.017500", "142956.017500", "142958.017500", "143000.017500", "143002.017500", "143004.017500", "143006.017500", "143008.017500", "143010.017500", "143012.017500", "143014.017500", "143016.017500", "143018.017500", "143020.017500", "143022.017500", "143024.017500", "143026.017500", "143028.017500", "143030.017500", "143032.017500", "143034.017500", "143036.017500", "143038.017500", "143040.017500", "143042.017500", "143044.017500", "143046.017500", "143048.017500", "143050.017500", "143052.017500", "143054.017500", "143056.017500", "143058.017500", "143100.017500", "143102.017500", "143104.017500", "143106.017500", "143108.017500", "143110.017500", "143112.017500", "143114.017500", "143116.017500", "143118.017500", "143120.017500", "143122.017500", "143124.017500", "143126.017500", "143128.017500", "143130.017500", "143132.017500", "143134.017500", "143136.017500", "143138.017500", "143140.017500", "143142.017500", "143144.017500", "143146.017500", "143148.017500", "143150.017500", "143152.017500", "143154.017500", "143156.017500", "143158.017500", "143200.017500", "143202.017500", "143204.017500", "143206.017500", "143208.017500", "143210.017500", "143212.017500", "143214.017500", "143216.017500", "143218.017500", "143220.017500", "143222.017500", "143224.017500", "143226.017500", "143228.017500", "143230.017500", "143232.017500", "143234.017500", "143236.017500", "143238.017500", "143240.017500", "143242.017500", "143244.017500", "143246.017500", "143248.017500", "143250.017500", "143252.017500", "143254.017500", "143256.017500", "143258.017500", "143300.017500", "143302.017500", "143304.017500", "143306.017500", "143308.017500", "143310.017500", "143312.017500", "143314.017500", "143316.017500", "143318.017500", "143320.017500", "143322.017500", "143324.017500", "143326.017500", "143328.017500", "143330.017500", "143332.017500", "143334.017500", "143336.017500", "143338.017500", "143340.017500", "143342.017500", "143344.017500", "143346.017500", "143348.017500", "143350.017500", "143352.017500", "143354.017500", "143356.017500", "143358.017500", "143400.017500", "143402.017500", "143404.017500", "143406.017500", "143408.017500", "143410.017500", "143412.017500", "143414.017500", "143416.017500", "143418.017500", "143420.017500", "143422.017500", "143424.017500", "143426.017500", "143428.017500", "143430.017500", "143432.017500", "143434.017500", "143436.017500", "143438.017500", "143440.017500", "143442.017500", "143444.017500", "143446.017500", "143448.017500", "143450.017500", "143452.017500", "143454.017500", "143456.017500", "143458.017500", "143500.017500", "143502.017500", "143504.017500", "143506.017500", "143508.017500", "143510.017500", "143512.017500", "143514.017500", "143516.017500", "143518.017500", "143520.017500", "143522.017500", "143524.017500", "143526.017500", "143528.017500", "143530.017500", "143532.017500", "143534.017500", "143536.017500", "143538.017500", "143540.017500", "143542.017500", "143544.017500", "143546.017500", "143548.017500", "143550.017500", "143552.017500", "143554.017500", "143556.017500", "143558.017500", "143600.017500", "143602.017500", "143604.017500", "143606.017500", "143608.017500", "143610.017500", "143612.017500", "143614.017500", "143616.017500", "143618.017500", "143620.017500", "143622.017500", "143624.017500", "143626.017500", "143628.017500", "143630.017500", "143632.017500", "143634.017500", "143636.017500", "143638.017500", "143640.017500", "143642.017500", "143644.017500", "143646.017500", "143648.017500", "143650.017500", "143652.017500", "143654.017500", "143656.017500", "143658.017500", "143700.017500", "143702.017500", "143704.017500", "143706.017500", "143708.017500", "143710.017500", "143712.017500", "143714.017500", "143716.017500", "143718.017500", "143720.017500", "143722.017500", "143724.017500", "143726.017500", "143728.017500", "143730.017500", "143732.017500", "143734.017500", "143736.017500", "143738.017500", "143740.017500", "143742.017500", "143744.017500", "143746.017500", "143748.017500", "143750.017500"],
      "ContentTime": ["142922.428000", "142923.924000", "142925.923000", "142927.923000", "142929.922000", "142931.922000", "142933.923000", "142935.923000", "142937.923000", "142940.424000", "142942.424000", "142944.423000", "142945.922000", "142948.422000", "142950.423000", "142952.423000", "142954.423000", "142955.923000", "142957.923000", "142959.924000", "143002.423000", "143004.422000", "143006.423000", "143008.422000", "143009.922000", "143011.923000", "143014.423000", "143015.923000", "143017.924000", "143020.423000", "143022.423000", "143023.922000", "143026.423000", "143027.923000", "143030.422000", "143032.424000", "143034.423000", "143035.924000", "143037.923000", "143039.923000", "143042.423000", "143043.922000", "143045.923000", "143047.923000", "143049.924000", "143051.923000", "143053.923000", "143055.922000", "143057.922000", "143059.922000", "143101.922000", "143103.923000", "143106.423000", "143107.923000", "143109.924000", "143112.423000", "143113.923000", "143115.923000", "143117.922000", "143119.923000", "143121.923000", "143124.424000", "143126.424000", "143128.423000", "143129.923000", "143131.922000", "143134.422000", "143135.922000", "143138.422000", "143139.922000", "143142.423000", "143143.924000", "143145.924000", "143148.423000", "143150.423000", "143151.923000", "143153.923000", "143155.923000", "143158.423000", "143159.923000", "143201.923000", "143203.923000", "143206.422000", "143207.922000", "143209.923000", "143212.422000", "143214.423000", "143215.922000", "143217.924000", "143220.424000", "143222.423000", "143223.922000", "143225.922000", "143227.923000", "143229.922000", "143231.923000", "143233.923000", "143236.424000", "143238.424000", "143239.923000", "143241.923000", "143243.922000", "143245.922000", "143248.423000", "143250.423000", "143252.424000", "143254.423000", "143256.424000", "143257.923000", "143300.423000", "143302.422000", "143303.923000", "143305.922000", "143307.923000", "143310.424000", "143312.424000", "143314.423000", "143315.923000", "143318.423000", "143319.922000", "143321.923000", "143324.423000", "143326.423000", "143328.423000", "143330.424000", "143332.424000", "143334.422000", "143335.922000", "143338.422000", "143340.423000", "143342.422000", "143344.423000", "143346.424000", "143348.424000", "143350.423000", "143352.423000", "143354.423000", "143355.923000", "143357.923000", "143400.423000", "143401.923000", "143404.424000", "143406.424000", "143407.922000", "143409.922000", "143411.923000", "143413.923000", "143416.422000", "143418.423000", "143419.923000", "143422.423000", "143423.924000", "143426.423000", "143427.922000", "143430.423000", "143431.923000", "143433.923000", "143436.423000", "143437.924000", "143439.923000", "143441.923000", "143444.422000", "143446.423000", "143448.422000", "143449.922000", "143451.923000", "143453.923000", "143456.424000", "143458.424000", "143459.923000", "143502.423000", "143503.923000", "143506.423000", "143507.922000", "143509.923000", "143511.923000", "143514.424000", "143515.924000", "143517.923000", "143519.923000", "143521.922000", "143523.922000", "143525.923000", "143528.422000", "143530.424000", "143531.924000", "143533.924000", "143535.922000", "143538.422000", "143539.922000", "143542.422000", "143544.423000", "143545.923000", "143548.424000", "143549.924000", "143552.424000", "143553.923000", "143555.922000", "143558.423000", "143559.922000", "143601.923000", "143604.424000", "143605.923000", "143607.923000", "143610.423000", "143612.423000", "143613.922000", "143615.923000", "143617.922000", "143620.423000", "143621.923000", "143624.423000", "143625.923000", "143628.422000", "143629.922000", "143632.423000", "143633.922000", "143635.922000", "143637.922000", "143640.424000", "143641.939000", "143644.424000", "143645.923000", "143647.923000", "143649.923000", "143651.922000", "143653.923000", "143656.422000", "143658.423000", "143700.424000", "143701.923000", "143704.423000", "143705.922000", "143707.922000", "143709.923000", "143711.923000", "143713.924000", "143715.923000", "143717.923000", "143719.923000", "143722.423000", "143723.923000", "143726.423000", "143728.422000", "143729.923000", "143732.424000", "143734.424000", "143736.424000", "143738.423000", "143740.422000", "143742.423000", "143743.923000", "143746.423000", "143748.423000", "143749.924000", "143752.007000"],
      "InstanceCreationTime": ["142922.428000", "142923.924000", "142925.923000", "142927.923000", "142929.922000", "142931.922000", "142933.923000", "142935.923000", "142937.923000", "142940.424000", "142942.424000", "142944.423000", "142945.922000", "142948.422000", "142950.423000", "142952.423000", "142954.423000", "142955.923000", "142957.923000", "142959.924000", "143002.423000", "143004.422000", "143006.423000", "143008.422000", "143009.922000", "143011.923000", "143014.423000", "143015.923000", "143017.924000", "143020.423000", "143022.423000", "143023.922000", "143026.423000", "143027.923000", "143030.422000", "143032.424000", "143034.423000", "143035.924000", "143037.923000", "143039.923000", "143042.423000", "143043.922000", "143045.923000", "143047.923000", "143049.924000", "143051.923000", "143053.923000", "143055.922000", "143057.922000", "143059.922000", "143101.922000", "143103.923000", "143106.423000", "143107.923000", "143109.924000", "143112.423000", "143113.923000", "143115.923000", "143117.922000", "143119.923000", "143121.923000", "143124.424000", "143126.424000", "143128.423000", "143129.923000", "143131.922000", "143134.422000", "143135.922000", "143138.422000", "143139.922000", "143142.423000", "143143.924000", "143145.924000", "143148.423000", "143150.423000", "143151.923000", "143153.923000", "143155.923000", "143158.423000", "143159.923000", "143201.923000", "143203.923000", "143206.422000", "143207.922000", "143209.923000", "143212.422000", "143214.423000", "143215.922000", "143217.924000", "143220.424000", "143222.423000", "143223.922000", "143225.922000", "143227.923000", "143229.922000", "143231.923000", "143233.923000", "143236.424000", "143238.424000", "143239.923000", "143241.923000", "143243.922000", "143245.922000", "143248.423000", "143250.423000", "143252.424000", "143254.423000", "143256.424000", "143257.923000", "143300.423000", "143302.422000", "143303.923000", "143305.922000", "143307.923000", "143310.424000", "143312.424000", "143314.423000", "143315.923000", "143318.423000", "143319.922000", "143321.923000", "143324.423000", "143326.423000", "143328.423000", "143330.424000", "143332.424000", "143334.422000", "143335.922000", "143338.422000", "143340.423000", "143342.422000", "143344.423000", "143346.424000", "143348.424000", "143350.423000", "143352.423000", "143354.423000", "143355.923000", "143357.923000", "143400.423000", "143401.923000", "143404.424000", "143406.424000", "143407.922000", "143409.922000", "143411.923000", "143413.923000", "143416.422000", "143418.423000", "143419.923000", "143422.423000", "143423.924000", "143426.423000", "143427.922000", "143430.423000", "143431.923000", "143433.923000", "143436.423000", "143437.924000", "143439.923000", "143441.923000", "143444.422000", "143446.423000", "143448.422000", "143449.922000", "143451.923000", "143453.923000", "143456.424000", "143458.424000", "143459.923000", "143502.423000", "143503.923000", "143506.423000", "143507.922000", "143509.923000", "143511.923000", "143514.424000", "143515.924000", "143517.923000", "143519.923000", "143521.922000", "143523.922000", "143525.923000", "143528.422000", "143530.424000", "143531.924000", "143533.924000", "143535.922000", "143538.422000", "143539.922000", "143542.422000", "143544.423000", "143545.923000", "143548.424000", "143549.924000", "143552.424000", "143553.923000", "143555.922000", "143558.423000", "143559.922000", "143601.923000", "143604.424000", "143605.923000", "143607.923000", "143610.423000", "143612.423000", "143613.922000", "143615.923000", "143617.922000", "143620.423000", "143621.923000", "143624.423000", "143625.923000", "143628.422000", "143629.922000", "143632.423000", "143633.922000", "143635.922000", "143637.922000", "143640.424000", "143641.939000", "143644.424000", "143645.923000", "143647.923000", "143649.923000", "143651.922000", "143653.923000", "143656.422000", "143658.423000", "143700.424000", "143701.923000", "143704.423000", "143705.922000", "143707.922000", "143709.923000", "143711.923000", "143713.924000", "143715.923000", "143717.923000", "143719.923000", "143722.423000", "143723.923000", "143726.423000", "143728.422000", "143729.923000", "143732.424000", "143734.424000", "143736.424000", "143738.423000", "143740.422000", "143742.423000", "143743.923000", "143746.423000", "143748.423000", "143749.924000", "143752.007000"],
      "InstanceNumber": [1, 2, 3, 4, 5, 6, 7, 8, 9, 10, 11, 12, 13, 14, 15, 16, 17, 18, 19, 20, 21, 22, 23, 24, 25, 26, 27, 28, 29, 30, 31, 32, 33, 34, 35, 36, 37, 38, 39, 40, 41, 42, 43, 44, 45, 46, 47, 48, 49, 50, 51, 52, 53, 54, 55, 56, 57, 58, 59, 60, 61, 62, 63, 64, 65, 66, 67, 68, 69, 70, 71, 72, 73, 74, 75, 76, 77, 78, 79, 80, 81, 82, 83, 84, 85, 86, 87, 88, 89, 90, 91, 92, 93, 94, 95, 96, 97, 98, 99, 100, 101, 102, 103, 104, 105, 106, 107, 108, 109, 110, 111, 112, 113, 114, 115, 116, 117, 118, 119, 120, 121, 122, 123, 124, 125, 126, 127, 128, 129, 130, 131, 132, 133, 134, 135, 136, 137, 138, 139, 140, 141, 142, 143, 144, 145, 146, 147, 148, 149, 150, 151, 152, 153, 154, 155, 156, 157, 158, 159, 160, 161, 162, 163, 164, 165, 166, 167, 168, 169, 170, 171, 172, 173, 174, 175, 176, 177, 178, 179, 180, 181, 182, 183, 184, 185, 186, 187, 188, 189, 190, 191, 192, 193, 194, 195, 196, 197, 198, 199, 200, 201, 202, 203, 204, 205, 206, 207, 208, 209, 210, 211, 212, 213, 214, 215, 216, 217, 218, 219, 220, 221, 222, 223, 224, 225, 226, 227, 228, 229, 230, 231, 232, 233, 234, 235, 236, 237, 238, 239, 240, 241, 242, 243, 244, 245, 246, 247, 248, 249, 250, 251, 252, 253, 254, 255, 256],
      "LargestImagePixelValue": [2717, 2576, 2469, 2449, 2493, 2540, 2554, 2548, 2556, 2456, 2497, 2492, 2702, 2515, 2456, 2447, 2490, 2513, 2505, 2499, 2509, 2462, 2490, 2493, 2488, 2456, 2455, 2453, 2478, 2547, 2451, 2461, 2425, 2418, 2553, 2504, 2494, 2423, 2449, 2427, 2471, 2456, 2432, 2438, 2404, 2507, 2476, 2455, 2444, 2435, 2467, 2475, 2507, 2467, 2454, 2437, 2421, 2449, 2455, 2451, 2498, 2448, 2447, 2446, 2460, 2435, 2455, 2416, 2501, 2438, 2424, 2547, 2488, 2494, 2459, 2511, 2447, 2464, 2500, 2504, 2437, 2446, 2423, 2476, 2522, 2507, 2472, 2435, 2435, 2430, 2447, 2427, 2418, 2509, 2520, 2514, 2463, 2444, 2510, 2443, 2452, 2457, 2425, 2463, 2476, 2478, 2444, 2495, 2488, 2555, 2487, 2547, 2420, 2470, 2441, 2440, 2411, 2454, 2439, 2459, 2451, 2477, 2446, 2453, 2466, 2434, 2527, 2448, 2442, 2490, 2456, 2495, 2444, 2438, 2449, 2447, 2430, 2457, 2523, 2504, 2415, 2430, 2436, 2452, 2503, 2492, 2462, 2458, 2454, 2420, 2443, 2443, 2403, 2436, 2450, 2475, 2552, 2536, 2495, 2602, 2445, 2512, 2436, 2428, 2449, 2426, 2446, 2487, 2653, 2496, 2426, 2419, 2443, 2464, 2436, 2437, 2393, 2727, 2486, 2480, 2456, 2581, 2431, 2523, 2517, 2486, 2577, 2488, 2454, 2483, 2529, 2458, 2480, 2443, 2447, 2466, 2474, 2458, 2471, 2451, 2449, 2491, 2490, 2495, 2452, 2498, 2464, 2475, 2444, 2440, 2470, 2489, 2470, 2518, 2495, 2506, 2512, 2466, 2453, 2516, 2580, 2530, 2556, 2457, 2542, 2524, 2503, 2525, 2601, 2571, 2517, 2551, 2488, 2468, 2572, 2468, 2441, 2521, 2526, 2579, 2547, 2745, 2560, 2529, 2534, 2583, 2561, 2469, 2422, 2616, 2475, 2599, 2546, 2605, 2526, 2606],
      "WindowCenter": [726.0, 725.0, 724.0, 723.0, 723.0, 723.0, 725.0, 725.0, 723.0, 728.0, 731.0, 731.0, 730.0, 728.0, 727.0, 726.0, 729.0, 728.0, 728.0, 727.0, 726.0, 725.0, 726.0, 727.0, 727.0, 726.0, 725.0, 725.0, 726.0, 727.0, 725.0, 725.0, 725.0, 726.0, 730.0, 729.0, 728.0, 726.0, 725.0, 724.0, 724.0, 724.0, 726.0, 725.0, 723.0, 726.0, 727.0, 726.0, 726.0, 726.0, 727.0, 727.0, 727.0, 726.0, 725.0, 723.0, 722.0, 724.0, 726.0, 725.0, 725.0, 724.0, 726.0, 727.0, 727.0, 725.0, 723.0, 723.0, 724.0, 724.0, 726.0, 729.0, 728.0, 726.0, 725.0, 725.0, 724.0, 723.0, 724.0, 726.0, 724.0, 724.0, 725.0, 726.0, 730.0, 727.0, 727.0, 724.0, 724.0, 725.0, 725.0, 724.0, 722.0, 724.0, 726.0, 725.0, 725.0, 725.0, 727.0, 725.0, 726.0, 726.0, 726.0, 727.0, 727.0, 727.0, 727.0, 727.0, 725.0, 725.0, 725.0, 725.0, 724.0, 723.0, 722.0, 723.0, 723.0, 724.0, 725.0, 724.0, 725.0, 726.0, 728.0, 727.0, 725.0, 725.0, 726.0, 726.0, 726.0, 727.0, 728.0, 728.0, 725.0, 723.0, 724.0, 724.0, 725.0, 725.0, 725.0, 723.0, 724.0, 725.0, 725.0, 724.0, 725.0, 726.0, 727.0, 727.0, 725.0, 724.0, 726.0, 726.0, 723.0, 725.0, 726.0, 726.0, 729.0, 729.0, 727.0, 727.0, 723.0, 725.0, 724.0, 724.0, 725.0, 726.0, 728.0, 729.0, 729.0, 725.0, 723.0, 723.0, 723.0, 724.0, 724.0, 723.0, 722.0, 728.0, 728.0, 727.0, 727.0, 727.0, 727.0, 730.0, 730.0, 729.0, 726.0, 723.0, 723.0, 725.0, 727.0, 725.0, 725.0, 723.0, 723.0, 724.0, 724.0, 724.0, 726.0, 725.0, 725.0, 726.0, 727.0, 727.0, 725.0, 725.0, 726.0, 726.0, 725.0, 725.0, 726.0, 727.0, 726.0, 727.0, 728.0, 727.0, 726.0, 725.0, 725.0, 726.0, 728.0, 728.0, 727.0, 725.0, 725.0, 725.0, 725.0, 727.0, 729.0, 730.0, 728.0, 727.0, 725.0, 725.0, 726.0, 724.0, 724.0, 726.0, 728.0, 728.0, 727.0, 730.0, 729.0, 729.0, 727.0, 726.0, 726.0, 726.0, 725.0, 726.0, 725.0, 728.0, 728.0, 727.0, 726.0, 727.0],
      "WindowWidth": [1545.0, 1540.0, 1540.0, 1536.0, 1537.0, 1538.0, 1542.0, 1542.0, 1536.0, 1551.0, 1557.0, 1557.0, 1554.0, 1548.0, 1548.0, 1546.0, 1552.0, 1550.0, 1550.0, 1547.0, 1545.0, 1542.0, 1545.0, 1548.0, 1547.0, 1544.0, 1542.0, 1542.0, 1546.0, 1547.0, 1543.0, 1543.0, 1543.0, 1545.0, 1554.0, 1551.0, 1549.0, 1544.0, 1542.0, 1539.0, 1539.0, 1541.0, 1544.0, 1542.0, 1538.0, 1546.0, 1548.0, 1546.0, 1545.0, 1544.0, 1547.0, 1547.0, 1548.0, 1545.0, 1542.0, 1538.0, 1536.0, 1541.0, 1546.0, 1543.0, 1543.0, 1541.0, 1545.0, 1547.0, 1546.0, 1542.0, 1538.0, 1537.0, 1539.0, 1540.0, 1544.0, 1551.0, 1549.0, 1545.0, 1543.0, 1543.0, 1540.0, 1537.0, 1541.0, 1544.0, 1540.0, 1540.0, 1542.0, 1546.0, 1554.0, 1548.0, 1548.0, 1541.0, 1540.0, 1541.0, 1542.0, 1540.0, 1535.0, 1538.0, 1544.0, 1543.0, 1542.0, 1542.0, 1546.0, 1544.0, 1544.0, 1544.0, 1545.0, 1547.0, 1548.0, 1547.0, 1547.0, 1548.0, 1543.0, 1543.0, 1541.0, 1543.0, 1539.0, 1538.0, 1536.0, 1538.0, 1538.0, 1540.0, 1542.0, 1541.0, 1542.0, 1545.0, 1549.0, 1547.0, 1542.0, 1541.0, 1545.0, 1544.0, 1544.0, 1547.0, 1549.0, 1549.0, 1542.0, 1538.0, 1540.0, 1539.0, 1541.0, 1542.0, 1541.0, 1538.0, 1539.0, 1543.0, 1543.0, 1541.0, 1542.0, 1545.0, 1547.0, 1547.0, 1544.0, 1541.0, 1546.0, 1544.0, 1536.0, 1541.0, 1544.0, 1545.0, 1552.0, 1551.0, 1547.0, 1546.0, 1538.0, 1541.0, 1541.0, 1539.0, 1543.0, 1545.0, 1551.0, 1553.0, 1552.0, 1543.0, 1538.0, 1537.0, 1538.0, 1539.0, 1540.0, 1538.0, 1534.0, 1547.0, 1549.0, 1548.0, 1546.0, 1547.0, 1547.0, 1554.0, 1556.0, 1551.0, 1545.0, 1537.0, 1537.0, 1541.0, 1546.0, 1542.0, 1541.0, 1537.0, 1538.0, 1539.0, 1539.0, 1541.0, 1545.0, 1542.0, 1541.0, 1545.0, 1548.0, 1547.0, 1543.0, 1543.0, 1544.0, 1544.0, 1543.0, 1542.0, 1545.0, 1547.0, 1545.0, 1546.0, 1549.0, 1546.0, 1545.0, 1542.0, 1543.0, 1544.0, 1550.0, 1550.0, 1549.0, 1541.0, 1540.0, 1541.0, 1543.0, 1548.0, 1552.0, 1554.0, 1549.0, 1547.0, 1543.0, 1542.0, 1544.0, 1539.0, 1539.0, 1544.0, 1548.0, 1548.0, 1547.0, 1553.0, 1552.0, 1552.0, 1548.0, 1544.0, 1545.0, 1545.0, 1540.0, 1544.0, 1542.0, 1548.0, 1548.0, 1547.0, 1544.0, 1545.0]
    },
    "slices": {}
  }
}