{
 "AcquisitionMatrixPE": 100,
 "AcquisitionNumber": 1,
 "AcquisitionTime": "14:48:19.010000",
 "BandwidthPerPixelPhaseEncode": 18.519,
 "BaseResolution": 100,
 "BodyPartExamined": "BRAIN",
 "ConsistencyInfo": "N4_VE11C_LATEST_20160120",
 "ConversionSoftware": "dcm2niix",
 "ConversionSoftwareVersion": "v1.0.20180622 GCC4.9.2",
 "DerivedVendorReportedEchoSpacing": 0.000539986,
 "DeviceSerialNumber": "166078",
 "DwellTime": 2.1e-06,
 "EchoTime": 0.034,
 "EchoTrainLength": 100,
 "EffectiveEchoSpacing": 0.000539986,
 "FlipAngle": 90,
 "ImageOrientationPatientDICOM": [
  0.999962,
  0.00193335,
  0.00850967,
  -2.73757e-09,
  0.975149,
  -0.221548
 ],
 "ImageType": [
  "ORIGINAL",
  "PRIMARY",
  "M",
  "ND",
  "MOSAIC"
 ],
 "InPlanePhaseEncodingDirectionDICOM": "COL",
 "InstitutionAddress": "Street_StreetNo_Bei_Jing_District_CN_ZIP",
 "InstitutionName": "BeiJing_Normal_University",
 "InstitutionalDepartmentName": "Department",
 "MRAcquisitionType": "2D",
 "MagneticFieldStrength": 3,
 "Manufacturer": "Siemens",
 "ManufacturersModelName": "Prisma",
 "Modality": "MR",
 "MultibandAccelerationFactor": 3,
 "PartialFourier": 1,
 "PatientPosition": "HFS",
 "PercentPhaseFOV": 100,
 "PhaseEncodingDirection": "j-",
 "PhaseEncodingSteps": 100,
 "PhaseResolution": 1,
 "PixelBandwidth": 2380,
 "ProcedureStepDescription": "BNU_P2018_64CH_Zhen.ZongLei",
 "ProtocolName": "bold_100x100_s3_2x2x2_static_256",
 "PulseSequenceDetails": "%SiemensSeq%_ep2d_bold",
 "ReceiveCoilActiveElements": "HC1-7;NC1",
 "ReceiveCoilName": "HeadNeck_64",
 "ReconMatrixPE": 100,
 "RepetitionTime": 2,
 "SAR": 0.0768872,
 "ScanOptions": "FS",
 "ScanningSequence": "EP",
 "SequenceName": "_epfid2d1_100",
 "SequenceVariant": "SK",
 "SeriesDescription": "bold_100x100_s3_2x2x2_static_256",
 "SeriesNumber": 15,
 "ShimSetting": [
  -5463,
  -11511,
  -1295,
  471,
  -65,
  -229,
  -93,
  55
 ],
 "SliceThickness": 2,
 "SliceTiming": [
  1.485,
  0,
  0.99,
  0.0825,
  1.0725,
  0.165,
  1.155,
  0.2475,
  1.2375,
  0.33,
  1.32,
  0.4125,
  1.4025,
  0.5775,
  1.5675,
  0.66,
  1.65,
  0.7425,
  1.7325,
  0.825,
  1.815,
  0.9075,
  1.8975,
  0.495,
  1.485,
  0,
  0.99,
  0.0825,
  1.0725,
  0.165,
  1.155,
  0.2475,
  1.2375,
  0.33,
  1.32,
  0.4125,
  1.4025,
  0.5775,
  1.5675,
  0.66,
  1.65,
  0.7425,
  1.7325,
  0.825,
  1.815,
  0.9075,
  1.8975,
  0.495,
  1.485,
  0,
  0.99,
  0.0825,
  1.0725,
  0.165,
  1.155,
  0.2475,
  1.2375,
  0.33,
  1.32,
  0.4125,
  1.4025,
  0.5775,
  1.5675,
  0.66,
  1.65,
  0.7425,
  1.7325,
  0.825,
  1.815,
  0.9075,
  1.8975,
  0.495
 ],
 "SoftwareVersions": "syngo_MR_E11",
 "SpacingBetweenSlices": 2,
 "StationName": "AWP166078",
 "TaskName": "imagenet",
 "TotalReadoutTime": 0.0534586,
 "TxRefAmp": 218.717,
 "dcmmeta_affine": [
  [
   -1.999923825263977,
   -5.475131903409647e-09,
   0.017453065142035484,
   101.54609680175781
  ],
  [
   -0.003866705810651183,
   1.9502986669540405,
   -0.4430801272392273,
   -77.69586944580078
  ],
  [
   0.017019344493746758,
   0.44309699535369873,
   1.95022451877594,
   -102.74598693847656
  ],
  [
   0.0,
   0.0,
   0.0,
   1.0
  ]
 ],
 "dcmmeta_reorient_transform": [
  [
   0.0,
   -1.0,
   0.0,
   99.0
  ],
  [
   1.0,
   0.0,
   0.0,
   0.0
  ],
  [
   0.0,
   0.0,
   1.0,
   0.0
  ],
  [
   0.0,
   0.0,
   0.0,
   1.0
  ]
 ],
 "dcmmeta_shape": [
  100,
  100,
  72,
  256
 ],
 "dcmmeta_slice_dim": 2,
 "dcmmeta_version": 0.6,
 "global": {
  "const": {
   "AcquisitionMatrix": [
    100,
    0,
    0,
    100
   ],
   "AngioFlag": "N",
   "BitsAllocated": 16,
   "BitsStored": 12,
   "BodyPartExamined": "BRAIN",
   "Columns": 900,
   "EchoNumbers": 1,
   "EchoTime": 34.0,
   "EchoTrainLength": 100,
   "FlipAngle": 90.0,
   "HighBit": 11,
   "ImageOrientationPatient": [
    0.99996192308933,
    0.00193335288668,
    0.00850967203305,
    -2.737566e-09,
    0.97514935360807,
    -0.2215485006895
   ],
   "ImagePositionPatient": [
    -901.5156357625,
    -897.04986423578,
    111.55168010475
   ],
   "ImageType": [
    "ORIGINAL",
    "PRIMARY",
    "M",
    "ND",
    "MOSAIC"
   ],
   "ImagedNucleus": "1H",
   "ImagingFrequency": 123.257756,
   "InPlanePhaseEncodingDirection": "COL",
   "MRAcquisitionType": "2D",
   "MagneticFieldStrength": 3.0,
   "Manufacturer": "SIEMENS",
   "ManufacturerModelName": "Prisma",
   "Modality": "MR",
   "NumberOfAverages": 1.0,
   "NumberOfPhaseEncodingSteps": 100,
   "PercentPhaseFieldOfView": 100.0,
   "PercentSampling": 100.0,
   "PerformedProcedureStepStartTime": "130903.284000",
   "PhotometricInterpretation": "MONOCHROME2",
   "PixelBandwidth": 2380.0,
   "PixelRepresentation": 0,
   "PixelSpacing": [
    2.0,
    2.0
   ],
   "ProtocolName": "bold_100x100_s3_2x2x2_static_256",
   "RepetitionTime": 2000.0,
   "Rows": 900,
   "SAR": 0.0768872168111,
   "SamplesPerPixel": 1,
   "ScanOptions": "FS",
   "ScanningSequence": "EP",
   "SequenceName": "*epfid2d1_100",
   "SequenceVariant": "SK",
   "SeriesDescription": "bold_100x100_s3_2x2x2_static_256",
   "SeriesNumber": 15,
   "SeriesTime": "144820.873000",
   "SliceLocation": -82.089972678415,
   "SliceThickness": 2.0,
   "SmallestImagePixelValue": 0,
   "SoftwareVersions": "syngo MR E11",
   "SpacingBetweenSlices": 2.0000000415733,
   "SpecificCharacterSet": "ISO_IR 100",
   "StudyID": "1",
   "StudyTime": "130903.184000",
   "TransmitCoilName": "Body",
   "VariableFlipAngleFlag": "N",
   "WindowCenterWidthExplanation": "Algo1",
   "dBdt": 0.0
  },
  "slices": {}
 },
 "time": {
  "samples": {
   "AcquisitionNumber": [
    1,
    2,
    3,
    4,
    5,
    6,
    7,
    8,
    9,
    10,
    11,
    12,
    13,
    14,
    15,
    16,
    17,
    18,
    19,
    20,
    21,
    22,
    23,
    24,
    25,
    26,
    27,
    28,
    29,
    30,
    31,
    32,
    33,
    34,
    35,
    36,
    37,
    38,
    39,
    40,
    41,
    42,
    43,
    44,
    45,
    46,
    47,
    48,
    49,
    50,
    51,
    52,
    53,
    54,
    55,
    56,
    57,
    58,
    59,
    60,
    61,
    62,
    63,
    64,
    65,
    66,
    67,
    68,
    69,
    70,
    71,
    72,
    73,
    74,
    75,
    76,
    77,
    78,
    79,
    80,
    81,
    82,
    83,
    84,
    85,
    86,
    87,
    88,
    89,
    90,
    91,
    92,
    93,
    94,
    95,
    96,
    97,
    98,
    99,
    100,
    101,
    102,
    103,
    104,
    105,
    106,
    107,
    108,
    109,
    110,
    111,
    112,
    113,
    114,
    115,
    116,
    117,
    118,
    119,
    120,
    121,
    122,
    123,
    124,
    125,
    126,
    127,
    128,
    129,
    130,
    131,
    132,
    133,
    134,
    135,
    136,
    137,
    138,
    139,
    140,
    141,
    142,
    143,
    144,
    145,
    146,
    147,
    148,
    149,
    150,
    151,
    152,
    153,
    154,
    155,
    156,
    157,
    158,
    159,
    160,
    161,
    162,
    163,
    164,
    165,
    166,
    167,
    168,
    169,
    170,
    171,
    172,
    173,
    174,
    175,
    176,
    177,
    178,
    179,
    180,
    181,
    182,
    183,
    184,
    185,
    186,
    187,
    188,
    189,
    190,
    191,
    192,
    193,
    194,
    195,
    196,
    197,
    198,
    199,
    200,
    201,
    202,
    203,
    204,
    205,
    206,
    207,
    208,
    209,
    210,
    211,
    212,
    213,
    214,
    215,
    216,
    217,
    218,
    219,
    220,
    221,
    222,
    223,
    224,
    225,
    226,
    227,
    228,
    229,
    230,
    231,
    232,
    233,
    234,
    235,
    236,
    237,
    238,
    239,
    240,
    241,
    242,
    243,
    244,
    245,
    246,
    247,
    248,
    249,
    250,
    251,
    252,
    253,
    254,
    255,
    256
   ],
   "AcquisitionTime": [
    "144819.010000",
    "144821.010000",
    "144823.010000",
    "144825.010000",
    "144827.010000",
    "144829.010000",
    "144831.010000",
    "144833.010000",
    "144835.010000",
    "144837.010000",
    "144839.010000",
    "144841.010000",
    "144843.010000",
    "144845.010000",
    "144847.010000",
    "144849.010000",
    "144851.010000",
    "144853.010000",
    "144855.010000",
    "144857.010000",
    "144859.010000",
    "144901.010000",
    "144903.010000",
    "144905.010000",
    "144907.010000",
    "144909.010000",
    "144911.010000",
    "144913.010000",
    "144915.010000",
    "144917.010000",
    "144919.010000",
    "144921.010000",
    "144923.010000",
    "144925.010000",
    "144927.010000",
    "144929.010000",
    "144931.010000",
    "144933.010000",
    "144935.010000",
    "144937.010000",
    "144939.010000",
    "144941.010000",
    "144943.010000",
    "144945.010000",
    "144947.010000",
    "144949.010000",
    "144951.010000",
    "144953.010000",
    "144955.010000",
    "144957.010000",
    "144959.010000",
    "145001.010000",
    "145003.010000",
    "145005.010000",
    "145007.010000",
    "145009.010000",
    "145011.010000",
    "145013.010000",
    "145015.010000",
    "145017.010000",
    "145019.010000",
    "145021.010000",
    "145023.010000",
    "145025.010000",
    "145027.010000",
    "145029.010000",
    "145031.010000",
    "145033.010000",
    "145035.010000",
    "145037.010000",
    "145039.010000",
    "145041.010000",
    "145043.010000",
    "145045.010000",
    "145047.010000",
    "145049.010000",
    "145051.010000",
    "145053.010000",
    "145055.010000",
    "145057.010000",
    "145059.010000",
    "145101.010000",
    "145103.010000",
    "145105.010000",
    "145107.010000",
    "145109.010000",
    "145111.010000",
    "145113.010000",
    "145115.010000",
    "145117.010000",
    "145119.010000",
    "145121.010000",
    "145123.010000",
    "145125.010000",
    "145127.010000",
    "145129.010000",
    "145131.010000",
    "145133.010000",
    "145135.010000",
    "145137.010000",
    "145139.010000",
    "145141.010000",
    "145143.010000",
    "145145.010000",
    "145147.010000",
    "145149.010000",
    "145151.010000",
    "145153.010000",
    "145155.010000",
    "145157.010000",
    "145159.010000",
    "145201.010000",
    "145203.010000",
    "145205.010000",
    "145207.010000",
    "145209.010000",
    "145211.010000",
    "145213.010000",
    "145215.010000",
    "145217.010000",
    "145219.010000",
    "145221.010000",
    "145223.010000",
    "145225.010000",
    "145227.010000",
    "145229.010000",
    "145231.010000",
    "145233.010000",
    "145235.010000",
    "145237.010000",
    "145239.010000",
    "145241.010000",
    "145243.010000",
    "145245.010000",
    "145247.010000",
    "145249.010000",
    "145251.010000",
    "145253.010000",
    "145255.010000",
    "145257.010000",
    "145259.010000",
    "145301.010000",
    "145303.010000",
    "145305.010000",
    "145307.010000",
    "145309.010000",
    "145311.010000",
    "145313.010000",
    "145315.010000",
    "145317.010000",
    "145319.010000",
    "145321.010000",
    "145323.010000",
    "145325.010000",
    "145327.010000",
    "145329.010000",
    "145331.010000",
    "145333.010000",
    "145335.010000",
    "145337.010000",
    "145339.010000",
    "145341.010000",
    "145343.010000",
    "145345.010000",
    "145347.010000",
    "145349.010000",
    "145351.010000",
    "145353.010000",
    "145355.010000",
    "145357.010000",
    "145359.010000",
    "145401.010000",
    "145403.010000",
    "145405.010000",
    "145407.010000",
    "145409.010000",
    "145411.010000",
    "145413.010000",
    "145415.010000",
    "145417.010000",
    "145419.010000",
    "145421.010000",
    "145423.010000",
    "145425.010000",
    "145427.010000",
    "145429.010000",
    "145431.010000",
    "145433.010000",
    "145435.010000",
    "145437.010000",
    "145439.010000",
    "145441.010000",
    "145443.010000",
    "145445.010000",
    "145447.010000",
    "145449.010000",
    "145451.010000",
    "145453.010000",
    "145455.010000",
    "145457.010000",
    "145459.010000",
    "145501.010000",
    "145503.010000",
    "145505.010000",
    "145507.010000",
    "145509.010000",
    "145511.010000",
    "145513.010000",
    "145515.010000",
    "145517.010000",
    "145519.010000",
    "145521.010000",
    "145523.010000",
    "145525.010000",
    "145527.010000",
    "145529.010000",
    "145531.010000",
    "145533.010000",
    "145535.010000",
    "145537.010000",
    "145539.010000",
    "145541.010000",
    "145543.010000",
    "145545.010000",
    "145547.010000",
    "145549.010000",
    "145551.010000",
    "145553.010000",
    "145555.010000",
    "145557.010000",
    "145559.010000",
    "145601.010000",
    "145603.010000",
    "145605.010000",
    "145607.010000",
    "145609.010000",
    "145611.010000",
    "145613.010000",
    "145615.010000",
    "145617.010000",
    "145619.010000",
    "145621.010000",
    "145623.010000",
    "145625.010000",
    "145627.010000",
    "145629.010000",
    "145631.010000",
    "145633.010000",
    "145635.010000",
    "145637.010000",
    "145639.010000",
    "145641.010000",
    "145643.010000",
    "145645.010000",
    "145647.010000",
    "145649.010000"
   ],
   "ContentTime": [
    "144820.877000",
    "144822.873000",
    "144824.872000",
    "144826.872000",
    "144828.371000",
    "144830.371000",
    "144832.371000",
    "144834.372000",
    "144836.872000",
    "144838.872000",
    "144840.872000",
    "144842.872000",
    "144844.871000",
    "144846.872000",
    "144848.371000",
    "144850.372000",
    "144852.871000",
    "144854.373000",
    "144856.372000",
    "144858.872000",
    "144900.871000",
    "144902.371000",
    "144904.871000",
    "144906.372000",
    "144908.371000",
    "144910.872000",
    "144912.373000",
    "144914.372000",
    "144916.871000",
    "144918.371000",
    "144920.371000",
    "144922.872000",
    "144924.371000",
    "144926.872000",
    "144928.372000",
    "144930.873000",
    "144932.872000",
    "144934.372000",
    "144936.372000",
    "144938.872000",
    "144940.871000",
    "144942.371000",
    "144944.872000",
    "144946.372000",
    "144948.872000",
    "144950.873000",
    "144952.372000",
    "144954.371000",
    "144956.872000",
    "144958.372000",
    "145000.872000",
    "145002.372000",
    "145004.873000",
    "145006.873000",
    "145008.372000",
    "145010.371000",
    "145012.872000",
    "145014.372000",
    "145016.371000",
    "145018.872000",
    "145020.873000",
    "145022.373000",
    "145024.872000",
    "145026.372000",
    "145028.872000",
    "145030.872000",
    "145032.371000",
    "145034.872000",
    "145036.371000",
    "145038.873000",
    "145040.372000",
    "145042.373000",
    "145044.372000",
    "145046.872000",
    "145048.372000",
    "145050.872000",
    "145052.872000",
    "145054.372000",
    "145056.372000",
    "145058.372000",
    "145100.372000",
    "145102.372000",
    "145104.872000",
    "145106.872000",
    "145108.372000",
    "145110.372000",
    "145112.371000",
    "145114.373000",
    "145116.872000",
    "145118.872000",
    "145120.372000",
    "145122.872000",
    "145124.872000",
    "145126.872000",
    "145128.872000",
    "145130.372000",
    "145132.373000",
    "145134.872000",
    "145136.371000",
    "145138.371000",
    "145140.872000",
    "145142.372000",
    "145144.872000",
    "145146.371000",
    "145148.873000",
    "145150.373000",
    "145152.372000",
    "145154.871000",
    "145156.372000",
    "145158.371000",
    "145200.872000",
    "145202.872000",
    "145204.371000",
    "145206.873000",
    "145208.373000",
    "145210.373000",
    "145212.371000",
    "145214.872000",
    "145216.372000",
    "145218.371000",
    "145220.872000",
    "145222.871000",
    "145224.372000",
    "145226.372000",
    "145228.872000",
    "145230.871000",
    "145232.371000",
    "145234.872000",
    "145236.371000",
    "145238.371000",
    "145240.873000",
    "145242.372000",
    "145244.872000",
    "145246.372000",
    "145248.372000",
    "145250.871000",
    "145252.371000",
    "145254.872000",
    "145256.871000",
    "145258.873000",
    "145300.873000",
    "145302.873000",
    "145304.372000",
    "145306.372000",
    "145308.372000",
    "145310.371000",
    "145312.872000",
    "145314.371000",
    "145316.873000",
    "145318.372000",
    "145320.372000",
    "145322.371000",
    "145324.871000",
    "145326.372000",
    "145328.372000",
    "145330.872000",
    "145332.371000",
    "145334.373000",
    "145336.373000",
    "145338.372000",
    "145340.371000",
    "145342.871000",
    "145344.371000",
    "145346.372000",
    "145348.371000",
    "145350.873000",
    "145352.873000",
    "145354.873000",
    "145356.372000",
    "145358.872000",
    "145400.372000",
    "145402.872000",
    "145404.872000",
    "145406.372000",
    "145408.873000",
    "145410.873000",
    "145412.373000",
    "145414.872000",
    "145416.372000",
    "145418.372000",
    "145420.371000",
    "145422.872000",
    "145424.371000",
    "145426.872000",
    "145428.372000",
    "145430.873000",
    "145432.371000",
    "145434.871000",
    "145436.372000",
    "145438.872000",
    "145440.872000",
    "145442.872000",
    "145444.872000",
    "145446.373000",
    "145448.373000",
    "145450.372000",
    "145452.371000",
    "145454.872000",
    "145456.371000",
    "145458.371000",
    "145500.371000",
    "145502.873000",
    "145504.372000",
    "145506.372000",
    "145508.372000",
    "145510.871000",
    "145512.371000",
    "145514.872000",
    "145516.372000",
    "145518.873000",
    "145520.873000",
    "145522.373000",
    "145524.371000",
    "145526.871000",
    "145528.371000",
    "145530.872000",
    "145532.872000",
    "145534.871000",
    "145536.872000",
    "145538.373000",
    "145540.872000",
    "145542.371000",
    "145544.871000",
    "145546.371000",
    "145548.872000",
    "145550.872000",
    "145552.873000",
    "145554.873000",
    "145556.373000",
    "145558.871000",
    "145600.372000",
    "145602.872000",
    "145604.372000",
    "145606.872000",
    "145608.872000",
    "145610.373000",
    "145612.873000",
    "145614.873000",
    "145616.372000",
    "145618.872000",
    "145620.872000",
    "145622.872000",
    "145624.872000",
    "145626.371000",
    "145628.872000",
    "145630.373000",
    "145632.872000",
    "145634.872000",
    "145636.872000",
    "145638.372000",
    "145640.872000",
    "145642.871000",
    "145644.372000",
    "145646.373000",
    "145648.373000",
    "145650.366000"
   ],
   "InstanceCreationTime": [
    "144820.877000",
    "144822.873000",
    "144824.872000",
    "144826.872000",
    "144828.371000",
    "144830.371000",
    "144832.371000",
    "144834.372000",
    "144836.872000",
    "144838.872000",
    "144840.872000",
    "144842.872000",
    "144844.871000",
    "144846.872000",
    "144848.371000",
    "144850.372000",
    "144852.871000",
    "144854.373000",
    "144856.372000",
    "144858.872000",
    "144900.871000",
    "144902.371000",
    "144904.871000",
    "144906.372000",
    "144908.371000",
    "144910.872000",
    "144912.373000",
    "144914.372000",
    "144916.871000",
    "144918.371000",
    "144920.371000",
    "144922.872000",
    "144924.371000",
    "144926.872000",
    "144928.372000",
    "144930.873000",
    "144932.872000",
    "144934.372000",
    "144936.372000",
    "144938.872000",
    "144940.871000",
    "144942.371000",
    "144944.872000",
    "144946.372000",
    "144948.872000",
    "144950.873000",
    "144952.372000",
    "144954.371000",
    "144956.872000",
    "144958.372000",
    "145000.872000",
    "145002.372000",
    "145004.873000",
    "145006.873000",
    "145008.372000",
    "145010.371000",
    "145012.872000",
    "145014.372000",
    "145016.371000",
    "145018.872000",
    "145020.873000",
    "145022.373000",
    "145024.872000",
    "145026.372000",
    "145028.872000",
    "145030.872000",
    "145032.371000",
    "145034.872000",
    "145036.371000",
    "145038.873000",
    "145040.372000",
    "145042.373000",
    "145044.372000",
    "145046.872000",
    "145048.372000",
    "145050.872000",
    "145052.872000",
    "145054.372000",
    "145056.372000",
    "145058.372000",
    "145100.372000",
    "145102.372000",
    "145104.872000",
    "145106.872000",
    "145108.372000",
    "145110.372000",
    "145112.371000",
    "145114.373000",
    "145116.872000",
    "145118.872000",
    "145120.372000",
    "145122.872000",
    "145124.872000",
    "145126.872000",
    "145128.872000",
    "145130.372000",
    "145132.373000",
    "145134.872000",
    "145136.371000",
    "145138.371000",
    "145140.872000",
    "145142.372000",
    "145144.872000",
    "145146.371000",
    "145148.873000",
    "145150.373000",
    "145152.372000",
    "145154.871000",
    "145156.372000",
    "145158.371000",
    "145200.872000",
    "145202.872000",
    "145204.371000",
    "145206.873000",
    "145208.373000",
    "145210.373000",
    "145212.371000",
    "145214.872000",
    "145216.372000",
    "145218.371000",
    "145220.872000",
    "145222.871000",
    "145224.372000",
    "145226.372000",
    "145228.872000",
    "145230.871000",
    "145232.371000",
    "145234.872000",
    "145236.371000",
    "145238.371000",
    "145240.873000",
    "145242.372000",
    "145244.872000",
    "145246.372000",
    "145248.372000",
    "145250.871000",
    "145252.371000",
    "145254.872000",
    "145256.871000",
    "145258.873000",
    "145300.873000",
    "145302.873000",
    "145304.372000",
    "145306.372000",
    "145308.372000",
    "145310.371000",
    "145312.872000",
    "145314.371000",
    "145316.873000",
    "145318.372000",
    "145320.372000",
    "145322.371000",
    "145324.871000",
    "145326.372000",
    "145328.372000",
    "145330.872000",
    "145332.371000",
    "145334.373000",
    "145336.373000",
    "145338.372000",
    "145340.371000",
    "145342.871000",
    "145344.371000",
    "145346.372000",
    "145348.371000",
    "145350.873000",
    "145352.873000",
    "145354.873000",
    "145356.372000",
    "145358.872000",
    "145400.372000",
    "145402.872000",
    "145404.872000",
    "145406.372000",
    "145408.873000",
    "145410.873000",
    "145412.373000",
    "145414.872000",
    "145416.372000",
    "145418.372000",
    "145420.371000",
    "145422.872000",
    "145424.371000",
    "145426.872000",
    "145428.372000",
    "145430.873000",
    "145432.371000",
    "145434.871000",
    "145436.372000",
    "145438.872000",
    "145440.872000",
    "145442.872000",
    "145444.872000",
    "145446.373000",
    "145448.373000",
    "145450.372000",
    "145452.371000",
    "145454.872000",
    "145456.371000",
    "145458.371000",
    "145500.371000",
    "145502.873000",
    "145504.372000",
    "145506.372000",
    "145508.372000",
    "145510.871000",
    "145512.371000",
    "145514.872000",
    "145516.372000",
    "145518.873000",
    "145520.873000",
    "145522.373000",
    "145524.371000",
    "145526.871000",
    "145528.371000",
    "145530.872000",
    "145532.872000",
    "145534.871000",
    "145536.872000",
    "145538.373000",
    "145540.872000",
    "145542.371000",
    "145544.871000",
    "145546.371000",
    "145548.872000",
    "145550.872000",
    "145552.873000",
    "145554.873000",
    "145556.373000",
    "145558.871000",
    "145600.372000",
    "145602.872000",
    "145604.372000",
    "145606.872000",
    "145608.872000",
    "145610.373000",
    "145612.873000",
    "145614.873000",
    "145616.372000",
    "145618.872000",
    "145620.872000",
    "145622.872000",
    "145624.872000",
    "145626.371000",
    "145628.872000",
    "145630.373000",
    "145632.872000",
    "145634.872000",
    "145636.872000",
    "145638.372000",
    "145640.872000",
    "145642.871000",
    "145644.372000",
    "145646.373000",
    "145648.373000",
    "145650.366000"
   ],
   "InstanceNumber": [
    1,
    2,
    3,
    4,
    5,
    6,
    7,
    8,
    9,
    10,
    11,
    12,
    13,
    14,
    15,
    16,
    17,
    18,
    19,
    20,
    21,
    22,
    23,
    24,
    25,
    26,
    27,
    28,
    29,
    30,
    31,
    32,
    33,
    34,
    35,
    36,
    37,
    38,
    39,
    40,
    41,
    42,
    43,
    44,
    45,
    46,
    47,
    48,
    49,
    50,
    51,
    52,
    53,
    54,
    55,
    56,
    57,
    58,
    59,
    60,
    61,
    62,
    63,
    64,
    65,
    66,
    67,
    68,
    69,
    70,
    71,
    72,
    73,
    74,
    75,
    76,
    77,
    78,
    79,
    80,
    81,
    82,
    83,
    84,
    85,
    86,
    87,
    88,
    89,
    90,
    91,
    92,
    93,
    94,
    95,
    96,
    97,
    98,
    99,
    100,
    101,
    102,
    103,
    104,
    105,
    106,
    107,
    108,
    109,
    110,
    111,
    112,
    113,
    114,
    115,
    116,
    117,
    118,
    119,
    120,
    121,
    122,
    123,
    124,
    125,
    126,
    127,
    128,
    129,
    130,
    131,
    132,
    133,
    134,
    135,
    136,
    137,
    138,
    139,
    140,
    141,
    142,
    143,
    144,
    145,
    146,
    147,
    148,
    149,
    150,
    151,
    152,
    153,
    154,
    155,
    156,
    157,
    158,
    159,
    160,
    161,
    162,
    163,
    164,
    165,
    166,
    167,
    168,
    169,
    170,
    171,
    172,
    173,
    174,
    175,
    176,
    177,
    178,
    179,
    180,
    181,
    182,
    183,
    184,
    185,
    186,
    187,
    188,
    189,
    190,
    191,
    192,
    193,
    194,
    195,
    196,
    197,
    198,
    199,
    200,
    201,
    202,
    203,
    204,
    205,
    206,
    207,
    208,
    209,
    210,
    211,
    212,
    213,
    214,
    215,
    216,
    217,
    218,
    219,
    220,
    221,
    222,
    223,
    224,
    225,
    226,
    227,
    228,
    229,
    230,
    231,
    232,
    233,
    234,
    235,
    236,
    237,
    238,
    239,
    240,
    241,
    242,
    243,
    244,
    245,
    246,
    247,
    248,
    249,
    250,
    251,
    252,
    253,
    254,
    255,
    256
   ],
   "LargestImagePixelValue": [
    2480,
    2473,
    2488,
    2568,
    2674,
    2534,
    2464,
    2527,
    2485,
    2488,
    2539,
    2504,
    2513,
    2509,
    2486,
    2499,
    2452,
    2502,
    2505,
    2479,
    2479,
    2633,
    2470,
    2539,
    2492,
    2509,
    2509,
    2604,
    2508,
    2504,
    2704,
    2493,
    2451,
    2448,
    2464,
    2619,
    2504,
    2481,
    2494,
    2516,
    2517,
    2502,
    2497,
    2491,
    2456,
    2445,
    2539,
    2525,
    2481,
    2661,
    2514,
    2489,
    2508,
    2474,
    2522,
    2567,
    2453,
    2475,
    2479,
    2621,
    2538,
    2537,
    2492,
    2465,
    2457,
    2465,
    2464,
    2430,
    2419,
    2477,
    2468,
    2499,
    2498,
    2503,
    2490,
    2525,
    2470,
    2481,
    2492,
    2585,
    2624,
    2478,
    2508,
    2612,
    2623,
    2516,
    2480,
    2460,
    2498,
    2484,
    2485,
    2500,
    2423,
    2634,
    2424,
    2478,
    2468,
    2491,
    2468,
    2493,
    2489,
    2459,
    2456,
    2432,
    2508,
    2469,
    2528,
    2529,
    2612,
    2449,
    2458,
    2438,
    2441,
    2474,
    2522,
    2448,
    2444,
    2431,
    2482,
    2622,
    2512,
    2471,
    2459,
    2442,
    2448,
    2486,
    2532,
    2447,
    2602,
    2457,
    2473,
    2560,
    2562,
    2484,
    2483,
    2465,
    2553,
    2706,
    2441,
    2432,
    2441,
    2471,
    2560,
    2499,
    2529,
    2506,
    2490,
    2497,
    2594,
    2490,
    2488,
    2439,
    2453,
    2480,
    2570,
    2542,
    2509,
    2458,
    2480,
    2593,
    2467,
    2484,
    2514,
    2507,
    2469,
    2443,
    2480,
    2517,
    2490,
    2521,
    2544,
    2483,
    2504,
    2479,
    2484,
    2482,
    2482,
    2468,
    2499,
    2489,
    2537,
    2498,
    2554,
    2575,
    2504,
    2485,
    2498,
    2440,
    2430,
    2462,
    2482,
    2527,
    2518,
    2510,
    2499,
    2498,
    2506,
    2498,
    2527,
    2504,
    2520,
    2537,
    2469,
    2481,
    2519,
    2572,
    2501,
    2544,
    2513,
    2644,
    2521,
    2529,
    2605,
    2494,
    2507,
    2498,
    2533,
    2522,
    2516,
    2703,
    2515,
    2598,
    2484,
    2572,
    2481,
    2573,
    2477,
    2536,
    2514,
    2461,
    2475,
    2489,
    2540,
    2515,
    2495,
    2470,
    2479,
    2528,
    2509,
    2514,
    2547,
    2514,
    2645,
    2518,
    2528,
    2515,
    2499,
    2495,
    2518,
    2540,
    2501,
    2464,
    2446,
    2482,
    2507,
    2504
   ],
   "WindowCenter": [
    728.0,
    728.0,
    729.0,
    732.0,
    733.0,
    730.0,
    728.0,
    728.0,
    727.0,
    728.0,
    728.0,
    730.0,
    729.0,
    726.0,
    726.0,
    726.0,
    726.0,
    726.0,
    726.0,
    725.0,
    727.0,
    730.0,
    724.0,
    727.0,
    725.0,
    728.0,
    729.0,
    729.0,
    727.0,
    727.0,
    730.0,
    728.0,
    727.0,
    727.0,
    727.0,
    727.0,
    725.0,
    726.0,
    729.0,
    729.0,
    728.0,
    727.0,
    727.0,
    729.0,
    727.0,
    727.0,
    727.0,
    725.0,
    725.0,
    729.0,
    727.0,
    726.0,
    725.0,
    724.0,
    725.0,
    726.0,
    725.0,
    727.0,
    730.0,
    731.0,
    728.0,
    728.0,
    728.0,
    729.0,
    727.0,
    724.0,
    723.0,
    723.0,
    723.0,
    725.0,
    726.0,
    728.0,
    727.0,
    728.0,
    729.0,
    729.0,
    727.0,
    727.0,
    728.0,
    730.0,
    730.0,
    728.0,
    731.0,
    731.0,
    730.0,
    728.0,
    726.0,
    724.0,
    726.0,
    725.0,
    725.0,
    725.0,
    723.0,
    726.0,
    724.0,
    726.0,
    727.0,
    728.0,
    727.0,
    726.0,
    726.0,
    727.0,
    727.0,
    727.0,
    728.0,
    728.0,
    731.0,
    730.0,
    728.0,
