{
  "AcquisitionMatrixPE": 100,
  "AcquisitionNumber": 1,
  "AcquisitionTime": "13:28:18.970000",
  "BandwidthPerPixelPhaseEncode": 18.519,
  "BaseResolution": 100,
  "BodyPartExamined": "BRAIN",
  "ConsistencyInfo": "N4_VE11C_LATEST_20160120",
  "ConversionSoftware": "dcm2niix",
  "ConversionSoftwareVersion": "v1.0.20180622 GCC4.9.2",
  "DerivedVendorReportedEchoSpacing": 0.000539986,
  "DeviceSerialNumber": "166078",
  "DwellTime": 2.1e-06,
  "EchoTime": 0.034,
  "EchoTrainLength": 100,
  "EffectiveEchoSpacing": 0.000539986,
  "FlipAngle": 90,
  "ImageOrientationPatientDICOM": [0.999962, 0.00193335, 0.00850967, -2.73757e-09, 0.975149, -0.221548],
  "ImageType": [
    "ORIGINAL",
    "PRIMARY",
    "M",
    "ND",
    "MOSAIC"
],
  "InPlanePhaseEncodingDirectionDICOM": "COL",
  "InstitutionAddress": "Street_StreetNo_Bei_Jing_District_CN_ZIP",
  "InstitutionName": "BeiJing_Normal_University",
  "InstitutionalDepartmentName": "Department",
  "MRAcquisitionType": "2D",
  "MagneticFieldStrength": 3,
  "Manufacturer": "Siemens",
  "ManufacturersModelName": "Prisma",
  "Modality": "MR",
  "MultibandAccelerationFactor": 3,
  "PartialFourier": 1,
  "PatientPosition": "HFS",
  "PercentPhaseFOV": 100,
  "PhaseEncodingDirection": "j-",
  "PhaseEncodingSteps": 100,
  "PhaseResolution": 1,
  "PixelBandwidth": 2380,
  "ProcedureStepDescription": "BNU_P2018_64CH_Zhen.ZongLei",
  "ProtocolName": "bold_100x100_s3_2x2x2_static_256",
  "PulseSequenceDetails": "%SiemensSeq%_ep2d_bold",
  "ReceiveCoilActiveElements": "HC1-7;NC1",
  "ReceiveCoilName": "HeadNeck_64",
  "ReconMatrixPE": 100,
  "RepetitionTime": 2,
  "SAR": 0.0768872,
  "ScanOptions": "FS",
  "ScanningSequence": "EP",
  "SequenceName": "_epfid2d1_100",
  "SequenceVariant": "SK",
  "SeriesDescription": "bold_100x100_s3_2x2x2_static_256",
  "SeriesNumber": 5,
  "ShimSetting": [-5463, -11511, -1295, 471, -65, -229, -93, 55],
  "SliceThickness": 2,
  "SliceTiming": [1.485, 0, 0.99, 0.0825, 1.0725, 0.165, 1.155, 0.2475, 1.2375, 0.33, 1.32, 0.4125, 1.4025, 0.5775, 1.5675, 0.66, 1.65, 0.7425, 1.7325, 0.825, 1.815, 0.9075, 1.8975, 0.495, 1.485, 0, 0.99, 0.0825, 1.0725, 0.165, 1.155, 0.2475, 1.2375, 0.33, 1.32, 0.4125, 1.4025, 0.5775, 1.5675, 0.66, 1.65, 0.7425, 1.7325, 0.825, 1.815, 0.9075, 1.8975, 0.495, 1.485, 0, 0.99, 0.0825, 1.0725, 0.165, 1.155, 0.2475, 1.2375, 0.33, 1.32, 0.4125, 1.4025, 0.5775, 1.5675, 0.66, 1.65, 0.7425, 1.7325, 0.825, 1.815, 0.9075, 1.8975, 0.495],
  "SoftwareVersions": "syngo_MR_E11",
  "SpacingBetweenSlices": 2,
  "StationName": "AWP166078",
  "TaskName": "naturalvision",
  "TotalReadoutTime": 0.0534586,
  "TxRefAmp": 218.717,
  "dcmmeta_affine": [
    [-1.999923825263977, -5.475131903409647e-09, 0.017453065142035484, 101.54609680175781],
    [-0.003866705810651183, 1.9502986669540405, -0.4430801272392273, -77.69586944580078],
    [0.017019344493746758, 0.44309699535369873, 1.95022451877594, -102.74598693847656],
    [0.0, 0.0, 0.0, 1.0]
],
  "dcmmeta_reorient_transform": [
    [0.0, -1.0, 0.0, 99.0],
    [1.0, 0.0, 0.0, 0.0],
    [0.0, 0.0, 1.0, 0.0],
    [0.0, 0.0, 0.0, 1.0]
],
  "dcmmeta_shape": [100, 100, 72, 256],
  "dcmmeta_slice_dim": 2,
  "dcmmeta_version": 0.6,
  "global": {
    "const": {
      "AcquisitionMatrix": [100, 0, 0, 100],
      "AngioFlag": "N",
      "BitsAllocated": 16,
      "BitsStored": 12,
      "BodyPartExamined": "BRAIN",
      "Columns": 900,
      "EchoNumbers": 1,
      "EchoTime": 34.0,
      "EchoTrainLength": 100,
      "FlipAngle": 90.0,
      "HighBit": 11,
      "ImageOrientationPatient": [0.99996192308933, 0.00193335288668, 0.00850967203305, -2.737566e-09, 0.97514935360807, -0.2215485006895],
      "ImagePositionPatient": [-901.5156357625, -897.04986423578, 111.55168010475],
      "ImageType": [
        "ORIGINAL",
        "PRIMARY",
        "M",
        "ND",
        "MOSAIC"
],
      "ImagedNucleus": "1H",
      "ImagingFrequency": 123.257744,
      "InPlanePhaseEncodingDirection": "COL",
      "MRAcquisitionType": "2D",
      "MagneticFieldStrength": 3.0,
      "Manufacturer": "SIEMENS",
      "ManufacturerModelName": "Prisma",
      "Modality": "MR",
      "NumberOfAverages": 1.0,
      "NumberOfPhaseEncodingSteps": 100,
      "PercentPhaseFieldOfView": 100.0,
      "PercentSampling": 100.0,
      "PerformedProcedureStepStartTime": "130903.284000",
      "PhotometricInterpretation": "MONOCHROME2",
      "PixelBandwidth": 2380.0,
      "PixelRepresentation": 0,
      "PixelSpacing": [2.0, 2.0],
      "ProtocolName": "bold_100x100_s3_2x2x2_static_256",
      "RepetitionTime": 2000.0,
      "Rows": 900,
      "SAR": 0.0768872168111,
      "SamplesPerPixel": 1,
      "ScanOptions": "FS",
      "ScanningSequence": "EP",
      "SequenceName": "*epfid2d1_100",
      "SequenceVariant": "SK",
      "SeriesDescription": "bold_100x100_s3_2x2x2_static_256",
      "SeriesNumber": 5,
      "SeriesTime": "132821.448000",
      "SliceLocation": -82.089972678415,
      "SliceThickness": 2.0,
      "SmallestImagePixelValue": 0,
      "SoftwareVersions": "syngo MR E11",
      "SpacingBetweenSlices": 2.0000000415733,
      "SpecificCharacterSet": "ISO_IR 100",
      "StudyID": "1",
      "StudyTime": "130903.184000",
      "TransmitCoilName": "Body",
      "VariableFlipAngleFlag": "N",
      "WindowCenterWidthExplanation": "Algo1",
      "dBdt": 0.0},
    "slices": {}
  },
  "time": {
    "samples": {
      "AcquisitionNumber": [1, 2, 3, 4, 5, 6, 7, 8, 9, 10, 11, 12, 13, 14, 15, 16, 17, 18, 19, 20, 21, 22, 23, 24, 25, 26, 27, 28, 29, 30, 31, 32, 33, 34, 35, 36, 37, 38, 39, 40, 41, 42, 43, 44, 45, 46, 47, 48, 49, 50, 51, 52, 53, 54, 55, 56, 57, 58, 59, 60, 61, 62, 63, 64, 65, 66, 67, 68, 69, 70, 71, 72, 73, 74, 75, 76, 77, 78, 79, 80, 81, 82, 83, 84, 85, 86, 87, 88, 89, 90, 91, 92, 93, 94, 95, 96, 97, 98, 99, 100, 101, 102, 103, 104, 105, 106, 107, 108, 109, 110, 111, 112, 113, 114, 115, 116, 117, 118, 119, 120, 121, 122, 123, 124, 125, 126, 127, 128, 129, 130, 131, 132, 133, 134, 135, 136, 137, 138, 139, 140, 141, 142, 143, 144, 145, 146, 147, 148, 149, 150, 151, 152, 153, 154, 155, 156, 157, 158, 159, 160, 161, 162, 163, 164, 165, 166, 167, 168, 169, 170, 171, 172, 173, 174, 175, 176, 177, 178, 179, 180, 181, 182, 183, 184, 185, 186, 187, 188, 189, 190, 191, 192, 193, 194, 195, 196, 197, 198, 199, 200, 201, 202, 203, 204, 205, 206, 207, 208, 209, 210, 211, 212, 213, 214, 215, 216, 217, 218, 219, 220, 221, 222, 223, 224, 225, 226, 227, 228, 229, 230, 231, 232, 233, 234, 235, 236, 237, 238, 239, 240, 241, 242, 243, 244, 245, 246, 247, 248, 249, 250, 251, 252, 253, 254, 255, 256],
      "AcquisitionTime": ["132818.970000", "132820.970000", "132822.970000", "132824.970000", "132826.970000", "132828.970000", "132830.970000", "132832.970000", "132834.970000", "132836.970000", "132838.970000", "132840.970000", "132842.970000", "132844.970000", "132846.970000", "132848.970000", "132850.970000", "132852.970000", "132854.970000", "132856.970000", "132858.970000", "132900.970000", "132902.970000", "132904.970000", "132906.970000", "132908.970000", "132910.970000", "132912.970000", "132914.970000", "132916.970000", "132918.970000", "132920.970000", "132922.970000", "132924.970000", "132926.970000", "132928.970000", "132930.970000", "132932.970000", "132934.970000", "132936.970000", "132938.970000", "132940.970000", "132942.970000", "132944.970000", "132946.970000", "132948.970000", "132950.970000", "132952.970000", "132954.970000", "132956.970000", "132958.970000", "133000.970000", "133002.970000", "133004.970000", "133006.970000", "133008.970000", "133010.970000", "133012.970000", "133014.970000", "133016.970000", "133018.970000", "133020.970000", "133022.970000", "133024.970000", "133026.970000", "133028.970000", "133030.970000", "133032.970000", "133034.970000", "133036.970000", "133038.970000", "133040.970000", "133042.970000", "133044.970000", "133046.970000", "133048.970000", "133050.970000", "133052.970000", "133054.970000", "133056.970000", "133058.970000", "133100.970000", "133102.970000", "133104.970000", "133106.970000", "133108.970000", "133110.970000", "133112.970000", "133114.970000", "133116.970000", "133118.970000", "133120.970000", "133122.970000", "133124.970000", "133126.970000", "133128.970000", "133130.970000", "133132.970000", "133134.970000", "133136.970000", "133138.970000", "133140.970000", "133142.970000", "133144.970000", "133146.970000", "133148.970000", "133150.970000", "133152.970000", "133154.970000", "133156.970000", "133158.970000", "133200.970000", "133202.970000", "133204.970000", "133206.970000", "133208.970000", "133210.970000", "133212.970000", "133214.970000", "133216.970000", "133218.970000", "133220.970000", "133222.970000", "133224.970000", "133226.970000", "133228.970000", "133230.970000", "133232.970000", "133234.970000", "133236.970000", "133238.970000", "133240.970000", "133242.970000", "133244.970000", "133246.970000", "133248.970000", "133250.970000", "133252.970000", "133254.970000", "133256.970000", "133258.970000", "133300.970000", "133302.970000", "133304.970000", "133306.970000", "133308.970000", "133310.970000", "133312.970000", "133314.970000", "133316.970000", "133318.970000", "133320.970000", "133322.970000", "133324.970000", "133326.970000", "133328.970000", "133330.970000", "133332.970000", "133334.970000", "133336.970000", "133338.970000", "133340.970000", "133342.970000", "133344.970000", "133346.970000", "133348.970000", "133350.970000", "133352.970000", "133354.970000", "133356.970000", "133358.970000", "133400.970000", "133402.970000", "133404.970000", "133406.970000", "133408.970000", "133410.970000", "133412.970000", "133414.970000", "133416.970000", "133418.970000", "133420.970000", "133422.970000", "133424.970000", "133426.970000", "133428.970000", "133430.970000", "133432.970000", "133434.970000", "133436.970000", "133438.970000", "133440.970000", "133442.970000", "133444.970000", "133446.970000", "133448.970000", "133450.970000", "133452.970000", "133454.970000", "133456.970000", "133458.970000", "133500.970000", "133502.970000", "133504.970000", "133506.970000", "133508.970000", "133510.970000", "133512.970000", "133514.970000", "133516.970000", "133518.970000", "133520.970000", "133522.970000", "133524.970000", "133526.970000", "133528.970000", "133530.970000", "133532.970000", "133534.970000", "133536.970000", "133538.970000", "133540.970000", "133542.970000", "133544.970000", "133546.970000", "133548.970000", "133550.970000", "133552.970000", "133554.970000", "133556.970000", "133558.970000", "133600.970000", "133602.970000", "133604.970000", "133606.970000", "133608.970000", "133610.970000", "133612.970000", "133614.970000", "133616.970000", "133618.970000", "133620.970000", "133622.970000", "133624.970000", "133626.970000", "133628.970000", "133630.970000", "133632.970000", "133634.970000", "133636.970000", "133638.970000", "133640.970000", "133642.970000", "133644.970000", "133646.970000", "133648.970000"],
      "ContentTime": ["132821.452000", "132822.947000", "132824.948000", "132826.948000", "132828.949000", "132830.948000", "132832.948000", "132834.948000", "132836.948000", "132839.447000", "132841.448000", "132842.947000", "132844.947000", "132846.948000", "132848.948000", "132851.449000", "132852.948000", "132854.948000", "132856.947000", "132858.948000", "132900.948000", "132903.449000", "132904.948000", "132906.949000", "132908.948000", "132910.948000", "132912.947000", "132914.947000", "132916.948000", "132918.947000", "132920.949000", "132922.948000", "132924.949000", "132927.448000", "132928.949000", "132930.948000", "132932.947000", "132934.948000", "132937.448000", "132938.948000", "132940.948000", "132942.949000", "132944.948000", "132947.448000", "132948.947000", "132951.447000", "132952.947000", "132955.448000", "132956.948000", "132958.948000", "133000.949000", "133002.949000", "133004.949000", "133006.947000", "133008.948000", "133010.947000", "133012.949000", "133015.449000", "133016.949000", "133018.949000", "133021.448000", "133022.947000", "133024.947000", "133026.947000", "133029.447000", "133030.948000", "133032.948000", "133034.949000", "133036.949000", "133038.948000", "133041.448000", "133042.948000", "133044.948000", "133046.947000", "133049.449000", "133050.948000", "133052.949000", "133054.948000", "133056.948000", "133058.948000", "133100.948000", "133102.948000", "133104.947000", "133107.448000", "133108.948000", "133110.949000", "133112.949000", "133115.448000", "133116.948000", "133118.947000", "133120.947000", "133122.949000", "133124.949000", "133126.948000", "133128.949000", "133130.949000", "133132.947000", "133134.947000", "133136.948000", "133139.448000", "133141.449000", "133142.948000", "133144.948000", "133146.948000", "133148.948000", "133151.448000", "133152.947000", "133154.947000", "133156.948000", "133158.948000", "133200.948000", "133202.949000", "133204.949000", "133206.948000", "133208.948000", "133210.948000", "133212.947000", "133214.948000", "133216.949000", "133218.949000", "133220.948000", "133223.449000", "133224.948000", "133227.448000", "133228.948000", "133230.948000", "133232.948000", "133234.949000", "133236.949000", "133238.949000", "133240.949000", "133242.947000", "133244.947000", "133246.948000", "133248.947000", "133250.949000", "133252.948000", "133254.949000", "133256.948000", "133259.449000", "133300.948000", "133302.948000", "133304.948000", "133306.947000", "133308.948000", "133310.949000", "133312.948000", "133314.948000", "133316.949000", "133318.948000", "133320.948000", "133322.947000", "133324.948000", "133326.948000", "133328.948000", "133330.948000", "133332.948000", "133334.948000", "133336.948000", "133338.948000", "133340.947000", "133342.949000", "133344.949000", "133347.449000", "133348.948000", "133350.949000", "133352.947000", "133354.948000", "133356.947000", "133358.948000", "133400.948000", "133402.948000", "133404.949000", "133406.949000", "133408.948000", "133410.948000", "133412.948000", "133414.948000", "133416.948000", "133418.949000", "133420.949000", "133422.949000", "133424.949000", "133426.949000", "133429.448000", "133430.947000", "133432.948000", "133434.948000", "133437.448000", "133438.949000", "133440.949000", "133442.949000", "133444.948000", "133446.947000", "133449.447000", "133450.948000", "133452.949000", "133454.948000", "133456.949000", "133458.949000", "133500.949000", "133502.947000", "133504.947000", "133506.948000", "133508.947000", "133510.949000", "133512.949000", "133514.949000", "133516.949000", "133518.949000", "133521.448000", "133522.948000", "133524.947000", "133526.948000", "133528.949000", "133531.449000", "133532.949000", "133534.949000", "133536.949000", "133538.947000", "133540.947000", "133542.948000", "133545.449000", "133546.949000", "133548.948000", "133550.949000", "133553.449000", "133554.949000", "133556.948000", "133558.947000", "133600.947000", "133602.960000", "133604.948000", "133606.949000", "133608.949000", "133610.949000", "133612.947000", "133614.947000", "133616.948000", "133618.948000", "133620.949000", "133622.949000", "133624.948000", "133627.449000", "133629.449000", "133631.448000", "133632.948000", "133635.448000", "133636.948000", "133638.948000", "133640.949000", "133642.949000", "133644.949000", "133647.448000", "133648.948000", "133650.944000"],
      "InstanceCreationTime": ["132821.452000", "132822.947000", "132824.948000", "132826.948000", "132828.949000", "132830.948000", "132832.948000", "132834.948000", "132836.948000", "132839.447000", "132841.448000", "132842.947000", "132844.947000", "132846.948000", "132848.948000", "132851.449000", "132852.948000", "132854.948000", "132856.947000", "132858.948000", "132900.948000", "132903.449000", "132904.948000", "132906.949000", "132908.948000", "132910.948000", "132912.947000", "132914.947000", "132916.948000", "132918.947000", "132920.949000", "132922.948000", "132924.949000", "132927.448000", "132928.949000", "132930.948000", "132932.947000", "132934.948000", "132937.448000", "132938.948000", "132940.948000", "132942.949000", "132944.948000", "132947.448000", "132948.947000", "132951.447000", "132952.947000", "132955.448000", "132956.948000", "132958.948000", "133000.949000", "133002.949000", "133004.949000", "133006.947000", "133008.948000", "133010.947000", "133012.949000", "133015.449000", "133016.949000", "133018.949000", "133021.448000", "133022.947000", "133024.947000", "133026.947000", "133029.447000", "133030.948000", "133032.948000", "133034.949000", "133036.949000", "133038.948000", "133041.448000", "133042.948000", "133044.948000", "133046.947000", "133049.449000", "133050.948000", "133052.949000", "133054.948000", "133056.948000", "133058.948000", "133100.948000", "133102.948000", "133104.947000", "133107.448000", "133108.948000", "133110.949000", "133112.949000", "133115.448000", "133116.948000", "133118.947000", "133120.947000", "133122.949000", "133124.949000", "133126.948000", "133128.949000", "133130.949000", "133132.947000", "133134.947000", "133136.948000", "133139.448000", "133141.449000", "133142.948000", "133144.948000", "133146.948000", "133148.948000", "133151.448000", "133152.947000", "133154.947000", "133156.948000", "133158.948000", "133200.948000", "133202.949000", "133204.949000", "133206.948000", "133208.948000", "133210.948000", "133212.947000", "133214.948000", "133216.949000", "133218.949000", "133220.948000", "133223.449000", "133224.948000", "133227.448000", "133228.948000", "133230.948000", "133232.948000", "133234.949000", "133236.949000", "133238.949000", "133240.949000", "133242.947000", "133244.947000", "133246.948000", "133248.947000", "133250.949000", "133252.948000", "133254.949000", "133256.948000", "133259.449000", "133300.948000", "133302.948000", "133304.948000", "133306.947000", "133308.948000", "133310.949000", "133312.948000", "133314.948000", "133316.949000", "133318.948000", "133320.948000", "133322.947000", "133324.948000", "133326.948000", "133328.948000", "133330.948000", "133332.948000", "133334.948000", "133336.948000", "133338.948000", "133340.947000", "133342.949000", "133344.949000", "133347.449000", "133348.948000", "133350.949000", "133352.947000", "133354.948000", "133356.947000", "133358.948000", "133400.948000", "133402.948000", "133404.949000", "133406.949000", "133408.948000", "133410.948000", "133412.948000", "133414.948000", "133416.948000", "133418.949000", "133420.949000", "133422.949000", "133424.949000", "133426.949000", "133429.448000", "133430.947000", "133432.948000", "133434.948000", "133437.448000", "133438.949000", "133440.949000", "133442.949000", "133444.948000", "133446.947000", "133449.447000", "133450.948000", "133452.949000", "133454.948000", "133456.949000", "133458.949000", "133500.949000", "133502.947000", "133504.947000", "133506.948000", "133508.947000", "133510.949000", "133512.949000", "133514.949000", "133516.949000", "133518.949000", "133521.448000", "133522.948000", "133524.947000", "133526.948000", "133528.949000", "133531.449000", "133532.949000", "133534.949000", "133536.949000", "133538.947000", "133540.947000", "133542.948000", "133545.449000", "133546.949000", "133548.948000", "133550.949000", "133553.449000", "133554.949000", "133556.948000", "133558.947000", "133600.947000", "133602.960000", "133604.948000", "133606.949000", "133608.949000", "133610.949000", "133612.947000", "133614.947000", "133616.948000", "133618.948000", "133620.949000", "133622.949000", "133624.948000", "133627.449000", "133629.449000", "133631.448000", "133632.948000", "133635.448000", "133636.948000", "133638.948000", "133640.949000", "133642.949000", "133644.949000", "133647.448000", "133648.948000", "133650.944000"],
      "InstanceNumber": [1, 2, 3, 4, 5, 6, 7, 8, 9, 10, 11, 12, 13, 14, 15, 16, 17, 18, 19, 20, 21, 22, 23, 24, 25, 26, 27, 28, 29, 30, 31, 32, 33, 34, 35, 36, 37, 38, 39, 40, 41, 42, 43, 44, 45, 46, 47, 48, 49, 50, 51, 52, 53, 54, 55, 56, 57, 58, 59, 60, 61, 62, 63, 64, 65, 66, 67, 68, 69, 70, 71, 72, 73, 74, 75, 76, 77, 78, 79, 80, 81, 82, 83, 84, 85, 86, 87, 88, 89, 90, 91, 92, 93, 94, 95, 96, 97, 98, 99, 100, 101, 102, 103, 104, 105, 106, 107, 108, 109, 110, 111, 112, 113, 114, 115, 116, 117, 118, 119, 120, 121, 122, 123, 124, 125, 126, 127, 128, 129, 130, 131, 132, 133, 134, 135, 136, 137, 138, 139, 140, 141, 142, 143, 144, 145, 146, 147, 148, 149, 150, 151, 152, 153, 154, 155, 156, 157, 158, 159, 160, 161, 162, 163, 164, 165, 166, 167, 168, 169, 170, 171, 172, 173, 174, 175, 176, 177, 178, 179, 180, 181, 182, 183, 184, 185, 186, 187, 188, 189, 190, 191, 192, 193, 194, 195, 196, 197, 198, 199, 200, 201, 202, 203, 204, 205, 206, 207, 208, 209, 210, 211, 212, 213, 214, 215, 216, 217, 218, 219, 220, 221, 222, 223, 224, 225, 226, 227, 228, 229, 230, 231, 232, 233, 234, 235, 236, 237, 238, 239, 240, 241, 242, 243, 244, 245, 246, 247, 248, 249, 250, 251, 252, 253, 254, 255, 256],
      "LargestImagePixelValue": [2487, 2446, 2491, 2467, 2438, 2491, 2480, 2520, 2510, 2515, 2527, 2530, 2622, 2538, 2525, 2516, 2522, 2534, 2576, 2516, 2473, 2500, 2518, 2530, 2537, 2528, 2557, 2550, 2547, 2524, 2536, 2533, 2528, 2516, 2534, 2584, 2562, 2539, 2551, 2576, 2548, 2533, 2547, 2506, 2487, 2535, 2529, 2551, 2516, 2520, 2534, 2558, 2519, 2559, 2549, 2516, 2496, 2492, 2498, 2560, 2536, 2548, 2547, 2539, 2526, 2524, 2527, 2552, 2526, 2566, 2531, 2507, 2522, 2527, 2538, 2520, 2533, 2577, 2554, 2454, 2503, 2540, 2520, 2491, 2524, 2532, 2555, 2555, 2507, 2516, 2517, 2491, 2479, 2474, 2536, 2625, 2539, 2525, 2525, 2497, 2521, 2567, 2496, 2508, 2481, 2538, 2554, 2601, 2528, 2532, 2539, 2513, 2530, 2542, 2619, 2547, 2480, 2469, 2466, 2544, 2460, 2493, 2517, 2528, 2508, 2496, 2500, 2459, 2472, 2486, 2480, 2513, 2517, 2514, 2517, 2500, 2508, 2512, 2522, 2509, 2482, 2500, 2481, 2503, 2499, 2529, 2554, 2618, 2574, 2564, 2565, 2533, 2487, 2536, 2549, 2571, 2544, 2547, 2540, 2634, 2527, 2563, 2547, 2518, 2520, 2501, 2547, 2585, 2582, 2572, 2567, 2573, 2550, 2558, 2535, 2521, 2516, 2533, 2527, 2541, 2569, 2570, 2559, 2543, 2534, 2545, 2546, 2544, 2538, 2553, 2539, 2568, 2592, 2540, 2529, 2543, 2567, 2589, 2574, 2517, 2521, 2536, 2554, 2538, 2581, 2564, 2569, 2585, 2554, 2732, 2552, 2525, 2541, 2565, 2553, 2553, 2568, 2554, 2570, 2574, 2542, 2567, 2559, 2540, 2553, 2526, 2536, 2536, 2578, 2562, 2576, 2590, 2542, 2593, 2576, 2540, 2549, 2553, 2547, 2583, 2568, 2503, 2542, 2532, 2548, 2563, 2568, 2569, 2534, 2518, 2533, 2528, 2530, 2542, 2536, 2521],
      "WindowCenter": [733.0, 731.0, 731.0, 731.0, 731.0, 732.0, 731.0, 732.0, 734.0, 735.0, 736.0, 737.0, 737.0, 735.0, 735.0, 733.0, 734.0, 735.0, 735.0, 733.0, 732.0, 733.0, 734.0, 734.0, 733.0, 732.0, 734.0, 735.0, 733.0, 731.0, 733.0, 734.0, 735.0, 735.0, 736.0, 735.0, 734.0, 734.0, 736.0, 736.0, 736.0, 735.0, 734.0, 732.0, 731.0, 732.0, 732.0, 733.0, 732.0, 732.0, 733.0, 733.0, 732.0, 732.0, 733.0, 731.0, 731.0, 731.0, 732.0, 733.0, 734.0, 734.0, 734.0, 734.0, 733.0, 732.0, 733.0, 733.0, 733.0, 733.0, 733.0, 732.0, 732.0, 732.0, 733.0, 733.0, 734.0, 735.0, 732.0, 730.0, 731.0, 732.0, 732.0, 733.0, 734.0, 733.0, 733.0, 732.0, 732.0, 732.0, 732.0, 731.0, 731.0, 731.0, 733.0, 734.0, 732.0, 731.0, 731.0, 732.0, 733.0, 733.0, 733.0, 733.0, 732.0, 733.0, 734.0, 734.0, 733.0, 732.0, 732.0, 732.0, 734.0, 733.0, 734.0, 732.0, 731.0, 730.0, 731.0, 732.0, 732.0, 732.0, 732.0, 731.0, 732.0, 731.0, 731.0, 731.0, 731.0, 732.0, 734.0, 734.0, 733.0, 732.0, 733.0, 732.0, 732.0, 732.0, 731.0, 731.0, 731.0, 731.0, 731.0, 731.0, 732.0, 732.0, 734.0, 733.0, 733.0, 733.0, 733.0, 733.0, 732.0, 733.0, 733.0, 732.0, 732.0, 732.0, 733.0, 734.0, 732.0, 731.0, 731.0, 731.0, 731.0, 733.0, 732.0, 732.0, 731.0, 732.0, 734.0, 733.0, 733.0, 732.0, 731.0, 731.0, 731.0, 731.0, 732.0, 733.0, 733.0, 732.0, 733.0, 733.0, 733.0, 732.0, 732.0, 731.0, 731.0, 732.0, 733.0, 735.0, 734.0, 733.0, 733.0, 733.0, 733.0, 734.0, 735.0, 733.0, 731.0, 732.0, 735.0, 737.0, 735.0, 732.0, 733.0, 733.0, 734.0, 736.0, 734.0, 732.0, 731.0, 732.0, 732.0, 731.0, 732.0, 732.0, 733.0, 733.0, 734.0, 734.0, 735.0, 734.0, 733.0, 733.0, 734.0, 734.0, 735.0, 735.0, 735.0, 734.0, 733.0, 733.0, 732.0, 731.0, 732.0, 733.0, 734.0, 734.0, 733.0, 732.0, 734.0, 733.0, 732.0, 732.0, 733.0, 732.0, 732.0, 732.0, 733.0, 733.0, 733.0, 733.0, 733.0, 733.0],
      "WindowWidth": [1560.0, 1555.0, 1556.0, 1555.0, 1556.0, 1558.0, 1555.0, 1558.0, 1562.0, 1565.0, 1569.0, 1571.0, 1571.0, 1566.0, 1565.0, 1561.0, 1563.0, 1567.0, 1567.0, 1559.0, 1558.0, 1560.0, 1564.0, 1564.0, 1562.0, 1559.0, 1563.0, 1566.0, 1560.0, 1557.0, 1561.0, 1564.0, 1565.0, 1567.0, 1569.0, 1566.0, 1564.0, 1565.0, 1568.0, 1568.0, 1568.0, 1566.0, 1563.0, 1558.0, 1557.0, 1558.0, 1559.0, 1560.0, 1559.0, 1558.0, 1561.0, 1560.0, 1560.0, 1560.0, 1560.0, 1557.0, 1555.0, 1557.0, 1559.0, 1562.0, 1565.0, 1565.0, 1565.0, 1563.0, 1561.0, 1560.0, 1563.0, 1562.0, 1561.0, 1562.0, 1561.0, 1559.0, 1560.0, 1559.0, 1561.0, 1563.0, 1565.0, 1566.0, 1558.0, 1552.0, 1555.0, 1558.0, 1560.0, 1562.0, 1564.0, 1562.0, 1562.0, 1559.0, 1559.0, 1559.0, 1558.0, 1557.0, 1556.0, 1557.0, 1561.0, 1564.0, 1560.0, 1556.0, 1557.0, 1558.0, 1561.0, 1562.0, 1561.0, 1560.0, 1559.0, 1561.0, 1563.0, 1563.0, 1562.0, 1558.0, 1559.0, 1560.0, 1563.0, 1562.0, 1564.0, 1560.0, 1555.0, 1554.0, 1556.0, 1559.0, 1559.0, 1559.0, 1559.0, 1556.0, 1559.0, 1555.0, 1555.0, 1556.0, 1557.0, 1559.0, 1563.0, 1565.0, 1563.0, 1560.0, 1561.0, 1558.0, 1560.0, 1558.0, 1557.0, 1556.0, 1555.0, 1557.0, 1556.0, 1555.0, 1557.0, 1559.0, 1563.0, 1562.0, 1561.0, 1561.0, 1562.0, 1560.0, 1558.0, 1560.0, 1562.0, 1560.0, 1558.0, 1559.0, 1561.0, 1564.0, 1559.0, 1557.0, 1556.0, 1556.0, 1556.0, 1560.0, 1559.0, 1558.0, 1557.0, 1559.0, 1564.0, 1563.0, 1561.0, 1559.0, 1557.0, 1556.0, 1555.0, 1555.0, 1558.0, 1560.0, 1561.0, 1559.0, 1560.0, 1561.0, 1561.0, 1559.0, 1558.0, 1557.0, 1556.0, 1558.0, 1562.0, 1566.0, 1565.0, 1561.0, 1561.0, 1561.0, 1562.0, 1564.0, 1565.0, 1562.0, 1556.0, 1559.0, 1566.0, 1571.0, 1566.0, 1560.0, 1562.0, 1562.0, 1563.0, 1567.0, 1563.0, 1559.0, 1556.0, 1557.0, 1558.0, 1557.0, 1558.0, 1559.0, 1560.0, 1560.0, 1563.0, 1564.0, 1566.0, 1563.0, 1559.0, 1560.0, 1562.0, 1563.0, 1566.0, 1565.0, 1566.0, 1563.0, 1561.0, 1560.0, 1559.0, 1556.0, 1558.0, 1562.0, 1564.0, 1564.0, 1561.0, 1558.0, 1563.0, 1561.0, 1558.0, 1557.0, 1561.0, 1559.0, 1558.0, 1559.0, 1560.0, 1561.0, 1560.0, 1561.0, 1562.0, 1562.0]
    },
    "slices": {}
  }
}