{
 "AcquisitionMatrixPE": 100,
 "AcquisitionNumber": 1,
 "AcquisitionTime": "13:18:54.795000",
 "BandwidthPerPixelPhaseEncode": 18.519,
 "BaseResolution": 100,
 "BodyPartExamined": "BRAIN",
 "ConsistencyInfo": "N4_VE11C_LATEST_20160120",
 "ConversionSoftware": "dcm2niix",
 "ConversionSoftwareVersion": "v1.0.20180622 GCC4.9.2",
 "DerivedVendorReportedEchoSpacing": 0.000539986,
 "DeviceSerialNumber": "166078",
 "DwellTime": 2.1e-06,
 "EchoTime": 0.034,
 "EchoTrainLength": 100,
 "EffectiveEchoSpacing": 0.000539986,
 "FlipAngle": 90,
 "ImageOrientationPatientDICOM": [
  0.999962,
  0.00193335,
  0.00850967,
  -2.73757e-09,
  0.975149,
  -0.221548
 ],
 "ImageType": [
  "ORIGINAL",
  "PRIMARY",
  "M",
  "ND",
  "MOSAIC"
 ],
 "InPlanePhaseEncodingDirectionDICOM": "COL",
 "InstitutionAddress": "Street_StreetNo_Bei_Jing_District_CN_ZIP",
 "InstitutionName": "BeiJing_Normal_University",
 "InstitutionalDepartmentName": "Department",
 "MRAcquisitionType": "2D",
 "MagneticFieldStrength": 3,
 "Manufacturer": "Siemens",
 "ManufacturersModelName": "Prisma",
 "Modality": "MR",
 "MultibandAccelerationFactor": 3,
 "PartialFourier": 1,
 "PatientPosition": "HFS",
 "PercentPhaseFOV": 100,
 "PhaseEncodingDirection": "j-",
 "PhaseEncodingSteps": 100,
 "PhaseResolution": 1,
 "PixelBandwidth": 2380,
 "ProcedureStepDescription": "BNU_P2018_64CH_Zhen.ZongLei",
 "ProtocolName": "bold_100x100_s3_2x2x2_static_256",
 "PulseSequenceDetails": "%SiemensSeq%_ep2d_bold",
 "ReceiveCoilActiveElements": "HC1-7;NC1",
 "ReceiveCoilName": "HeadNeck_64",
 "ReconMatrixPE": 100,
 "RepetitionTime": 2,
 "SAR": 0.0768872,
 "ScanOptions": "FS",
 "ScanningSequence": "EP",
 "SequenceName": "_epfid2d1_100",
 "SequenceVariant": "SK",
 "SeriesDescription": "bold_100x100_s3_2x2x2_static_256",
 "SeriesNumber": 4,
 "ShimSetting": [
  -5463,
  -11511,
  -1295,
  471,
  -65,
  -229,
  -93,
  55
 ],
 "SliceThickness": 2,
 "SliceTiming": [
  1.485,
  0,
  0.99,
  0.0825,
  1.0725,
  0.165,
  1.155,
  0.2475,
  1.2375,
  0.33,
  1.32,
  0.4125,
  1.4025,
  0.5775,
  1.5675,
  0.66,
  1.65,
  0.7425,
  1.7325,
  0.825,
  1.815,
  0.9075,
  1.8975,
  0.495,
  1.485,
  0,
  0.99,
  0.0825,
  1.0725,
  0.165,
  1.155,
  0.2475,
  1.2375,
  0.33,
  1.32,
  0.4125,
  1.4025,
  0.5775,
  1.5675,
  0.66,
  1.65,
  0.7425,
  1.7325,
  0.825,
  1.815,
  0.9075,
  1.8975,
  0.495,
  1.485,
  0,
  0.99,
  0.0825,
  1.0725,
  0.165,
  1.155,
  0.2475,
  1.2375,
  0.33,
  1.32,
  0.4125,
  1.4025,
  0.5775,
  1.5675,
  0.66,
  1.65,
  0.7425,
  1.7325,
  0.825,
  1.815,
  0.9075,
  1.8975,
  0.495
 ],
 "SoftwareVersions": "syngo_MR_E11",
 "SpacingBetweenSlices": 2,
 "StationName": "AWP166078",
 "TaskName": "imagenet",
 "TotalReadoutTime": 0.0534586,
 "TxRefAmp": 218.717,
 "dcmmeta_affine": [
  [
   -1.999923825263977,
   -5.475131903409647e-09,
   0.017453065142035484,
   101.54609680175781
  ],
  [
   -0.003866705810651183,
   1.9502986669540405,
   -0.4430801272392273,
   -77.69586944580078
  ],
  [
   0.017019344493746758,
   0.44309699535369873,
   1.95022451877594,
   -102.74598693847656
  ],
  [
   0.0,
   0.0,
   0.0,
   1.0
  ]
 ],
 "dcmmeta_reorient_transform": [
  [
   0.0,
   -1.0,
   0.0,
   99.0
  ],
  [
   1.0,
   0.0,
   0.0,
   0.0
  ],
  [
   0.0,
   0.0,
   1.0,
   0.0
  ],
  [
   0.0,
   0.0,
   0.0,
   1.0
  ]
 ],
 "dcmmeta_shape": [
  100,
  100,
  72,
  256
 ],
 "dcmmeta_slice_dim": 2,
 "dcmmeta_version": 0.6,
 "global": {
  "const": {
   "AcquisitionMatrix": [
    100,
    0,
    0,
    100
   ],
   "AngioFlag": "N",
   "BitsAllocated": 16,
   "BitsStored": 12,
   "BodyPartExamined": "BRAIN",
   "Columns": 900,
   "EchoNumbers": 1,
   "EchoTime": 34.0,
   "EchoTrainLength": 100,
   "FlipAngle": 90.0,
   "HighBit": 11,
   "ImageOrientationPatient": [
    0.99996192308933,
    0.00193335288668,
    0.00850967203305,
    -2.737566e-09,
    0.97514935360807,
    -0.2215485006895
   ],
   "ImagePositionPatient": [
    -901.5156357625,
    -897.04986423578,
    111.55168010475
   ],
   "ImageType": [
    "ORIGINAL",
    "PRIMARY",
    "M",
    "ND",
    "MOSAIC"
   ],
   "ImagedNucleus": "1H",
   "ImagingFrequency": 123.257736,
   "InPlanePhaseEncodingDirection": "COL",
   "MRAcquisitionType": "2D",
   "MagneticFieldStrength": 3.0,
   "Manufacturer": "SIEMENS",
   "ManufacturerModelName": "Prisma",
   "Modality": "MR",
   "NumberOfAverages": 1.0,
   "NumberOfPhaseEncodingSteps": 100,
   "PercentPhaseFieldOfView": 100.0,
   "PercentSampling": 100.0,
   "PerformedProcedureStepStartTime": "130903.284000",
   "PhotometricInterpretation": "MONOCHROME2",
   "PixelBandwidth": 2380.0,
   "PixelRepresentation": 0,
   "PixelSpacing": [
    2.0,
    2.0
   ],
   "ProtocolName": "bold_100x100_s3_2x2x2_static_256",
   "RepetitionTime": 2000.0,
   "Rows": 900,
   "SAR": 0.0768872168111,
   "SamplesPerPixel": 1,
   "ScanOptions": "FS",
   "ScanningSequence": "EP",
   "SequenceName": "*epfid2d1_100",
   "SequenceVariant": "SK",
   "SeriesDescription": "bold_100x100_s3_2x2x2_static_256",
   "SeriesNumber": 4,
   "SeriesTime": "131857.269000",
   "SliceLocation": -82.089972678415,
   "SliceThickness": 2.0,
   "SmallestImagePixelValue": 0,
   "SoftwareVersions": "syngo MR E11",
   "SpacingBetweenSlices": 2.0000000415733,
   "SpecificCharacterSet": "ISO_IR 100",
   "StudyID": "1",
   "StudyTime": "130903.184000",
   "TransmitCoilName": "Body",
   "VariableFlipAngleFlag": "N",
   "WindowCenterWidthExplanation": "Algo1",
   "dBdt": 0.0
  },
  "slices": {}
 },
 "time": {
  "samples": {
   "AcquisitionNumber": [
    1,
    2,
    3,
    4,
    5,
    6,
    7,
    8,
    9,
    10,
    11,
    12,
    13,
    14,
    15,
    16,
    17,
    18,
    19,
    20,
    21,
    22,
    23,
    24,
    25,
    26,
    27,
    28,
    29,
    30,
    31,
    32,
    33,
    34,
    35,
    36,
    37,
    38,
    39,
    40,
    41,
    42,
    43,
    44,
    45,
    46,
    47,
    48,
    49,
    50,
    51,
    52,
    53,
    54,
    55,
    56,
    57,
    58,
    59,
    60,
    61,
    62,
    63,
    64,
    65,
    66,
    67,
    68,
    69,
    70,
    71,
    72,
    73,
    74,
    75,
    76,
    77,
    78,
    79,
    80,
    81,
    82,
    83,
    84,
    85,
    86,
    87,
    88,
    89,
    90,
    91,
    92,
    93,
    94,
    95,
    96,
    97,
    98,
    99,
    100,
    101,
    102,
    103,
    104,
    105,
    106,
    107,
    108,
    109,
    110,
    111,
    112,
    113,
    114,
    115,
    116,
    117,
    118,
    119,
    120,
    121,
    122,
    123,
    124,
    125,
    126,
    127,
    128,
    129,
    130,
    131,
    132,
    133,
    134,
    135,
    136,
    137,
    138,
    139,
    140,
    141,
    142,
    143,
    144,
    145,
    146,
    147,
    148,
    149,
    150,
    151,
    152,
    153,
    154,
    155,
    156,
    157,
    158,
    159,
    160,
    161,
    162,
    163,
    164,
    165,
    166,
    167,
    168,
    169,
    170,
    171,
    172,
    173,
    174,
    175,
    176,
    177,
    178,
    179,
    180,
    181,
    182,
    183,
    184,
    185,
    186,
    187,
    188,
    189,
    190,
    191,
    192,
    193,
    194,
    195,
    196,
    197,
    198,
    199,
    200,
    201,
    202,
    203,
    204,
    205,
    206,
    207,
    208,
    209,
    210,
    211,
    212,
    213,
    214,
    215,
    216,
    217,
    218,
    219,
    220,
    221,
    222,
    223,
    224,
    225,
    226,
    227,
    228,
    229,
    230,
    231,
    232,
    233,
    234,
    235,
    236,
    237,
    238,
    239,
    240,
    241,
    242,
    243,
    244,
    245,
    246,
    247,
    248,
    249,
    250,
    251,
    252,
    253,
    254,
    255,
    256
   ],
   "AcquisitionTime": [
    "131854.795000",
    "131856.795000",
    "131858.795000",
    "131900.795000",
    "131902.795000",
    "131904.795000",
    "131906.795000",
    "131908.795000",
    "131910.795000",
    "131912.795000",
    "131914.795000",
    "131916.795000",
    "131918.795000",
    "131920.795000",
    "131922.795000",
    "131924.795000",
    "131926.795000",
    "131928.795000",
    "131930.795000",
    "131932.795000",
    "131934.795000",
    "131936.795000",
    "131938.795000",
    "131940.795000",
    "131942.795000",
    "131944.795000",
    "131946.795000",
    "131948.795000",
    "131950.795000",
    "131952.795000",
    "131954.795000",
    "131956.795000",
    "131958.795000",
    "132000.795000",
    "132002.795000",
    "132004.795000",
    "132006.795000",
    "132008.795000",
    "132010.795000",
    "132012.795000",
    "132014.795000",
    "132016.795000",
    "132018.795000",
    "132020.795000",
    "132022.795000",
    "132024.795000",
    "132026.795000",
    "132028.795000",
    "132030.795000",
    "132032.795000",
    "132034.795000",
    "132036.795000",
    "132038.795000",
    "132040.795000",
    "132042.795000",
    "132044.795000",
    "132046.795000",
    "132048.795000",
    "132050.795000",
    "132052.795000",
    "132054.795000",
    "132056.795000",
    "132058.795000",
    "132100.795000",
    "132102.795000",
    "132104.795000",
    "132106.795000",
    "132108.795000",
    "132110.795000",
    "132112.795000",
    "132114.795000",
    "132116.795000",
    "132118.795000",
    "132120.795000",
    "132122.795000",
    "132124.795000",
    "132126.795000",
    "132128.795000",
    "132130.795000",
    "132132.795000",
    "132134.795000",
    "132136.795000",
    "132138.795000",
    "132140.795000",
    "132142.795000",
    "132144.795000",
    "132146.795000",
    "132148.795000",
    "132150.795000",
    "132152.795000",
    "132154.795000",
    "132156.795000",
    "132158.795000",
    "132200.795000",
    "132202.795000",
    "132204.795000",
    "132206.795000",
    "132208.795000",
    "132210.795000",
    "132212.795000",
    "132214.795000",
    "132216.795000",
    "132218.795000",
    "132220.795000",
    "132222.795000",
    "132224.795000",
    "132226.795000",
    "132228.795000",
    "132230.795000",
    "132232.795000",
    "132234.795000",
    "132236.795000",
    "132238.795000",
    "132240.795000",
    "132242.795000",
    "132244.795000",
    "132246.795000",
    "132248.795000",
    "132250.795000",
    "132252.795000",
    "132254.795000",
    "132256.795000",
    "132258.795000",
    "132300.795000",
    "132302.795000",
    "132304.795000",
    "132306.795000",
    "132308.795000",
    "132310.795000",
    "132312.795000",
    "132314.795000",
    "132316.795000",
    "132318.795000",
    "132320.795000",
    "132322.795000",
    "132324.795000",
    "132326.795000",
    "132328.795000",
    "132330.795000",
    "132332.795000",
    "132334.795000",
    "132336.795000",
    "132338.795000",
    "132340.795000",
    "132342.795000",
    "132344.795000",
    "132346.795000",
    "132348.795000",
    "132350.795000",
    "132352.795000",
    "132354.795000",
    "132356.795000",
    "132358.795000",
    "132400.795000",
    "132402.795000",
    "132404.795000",
    "132406.795000",
    "132408.795000",
    "132410.795000",
    "132412.795000",
    "132414.795000",
    "132416.795000",
    "132418.795000",
    "132420.795000",
    "132422.795000",
    "132424.795000",
    "132426.795000",
    "132428.795000",
    "132430.795000",
    "132432.795000",
    "132434.795000",
    "132436.795000",
    "132438.795000",
    "132440.795000",
    "132442.795000",
    "132444.795000",
    "132446.795000",
    "132448.795000",
    "132450.795000",
    "132452.795000",
    "132454.795000",
    "132456.795000",
    "132458.795000",
    "132500.795000",
    "132502.795000",
    "132504.795000",
    "132506.795000",
    "132508.795000",
    "132510.795000",
    "132512.795000",
    "132514.795000",
    "132516.795000",
    "132518.795000",
    "132520.795000",
    "132522.795000",
    "132524.795000",
    "132526.795000",
    "132528.795000",
    "132530.795000",
    "132532.795000",
    "132534.795000",
    "132536.795000",
    "132538.795000",
    "132540.795000",
    "132542.795000",
    "132544.795000",
    "132546.795000",
    "132548.795000",
    "132550.795000",
    "132552.795000",
    "132554.795000",
    "132556.795000",
    "132558.795000",
    "132600.795000",
    "132602.795000",
    "132604.795000",
    "132606.795000",
    "132608.795000",
    "132610.795000",
    "132612.795000",
    "132614.795000",
    "132616.795000",
    "132618.795000",
    "132620.795000",
    "132622.795000",
    "132624.795000",
    "132626.795000",
    "132628.795000",
    "132630.795000",
    "132632.795000",
    "132634.795000",
    "132636.795000",
    "132638.795000",
    "132640.795000",
    "132642.795000",
    "132644.795000",
    "132646.795000",
    "132648.795000",
    "132650.795000",
    "132652.795000",
    "132654.795000",
    "132656.795000",
    "132658.795000",
    "132700.795000",
    "132702.795000",
    "132704.795000",
    "132706.795000",
    "132708.795000",
    "132710.795000",
    "132712.795000",
    "132714.795000",
    "132716.795000",
    "132718.795000",
    "132720.795000",
    "132722.795000",
    "132724.795000"
   ],
   "ContentTime": [
    "131857.272000",
    "131858.767000",
    "131900.767000",
    "131902.767000",
    "131904.767000",
    "131906.767000",
    "131908.768000",
    "131910.768000",
    "131912.768000",
    "131914.767000",
    "131916.767000",
    "131918.767000",
    "131920.767000",
    "131922.767000",
    "131924.767000",
    "131926.769000",
    "131928.768000",
    "131930.768000",
    "131932.767000",
    "131934.767000",
    "131936.767000",
    "131938.767000",
    "131940.767000",
    "131942.767000",
    "131944.768000",
    "131946.768000",
    "131948.767000",
    "131950.767000",
    "131952.767000",
    "131954.767000",
    "131956.767000",
    "131958.767000",
    "132000.767000",
    "132002.768000",
    "132004.768000",
    "132006.768000",
    "132008.767000",
    "132010.768000",
    "132012.767000",
    "132014.767000",
    "132016.767000",
    "132018.769000",
    "132020.768000",
    "132022.768000",
    "132024.768000",
    "132026.768000",
    "132028.768000",
    "132030.767000",
    "132032.767000",
    "132034.768000",
    "132036.769000",
    "132038.768000",
    "132040.769000",
    "132042.767000",
    "132044.767000",
    "132046.767000",
    "132048.767000",
    "132050.768000",
    "132052.768000",
    "132054.768000",
    "132056.768000",
    "132058.767000",
    "132100.768000",
    "132102.768000",
    "132104.767000",
    "132106.767000",
    "132108.767000",
    "132110.768000",
    "132112.768000",
    "132114.768000",
    "132116.767000",
    "132118.768000",
    "132120.767000",
    "132122.767000",
    "132124.767000",
    "132126.768000",
    "132128.769000",
    "132130.768000",
    "132132.768000",
    "132134.767000",
    "132136.767000",
    "132138.767000",
    "132140.767000",
    "132142.767000",
    "132144.768000",
    "132146.769000",
    "132148.769000",
    "132150.769000",
    "132152.768000",
    "132154.768000",
    "132156.767000",
    "132158.767000",
    "132200.767000",
    "132202.767000",
    "132204.769000",
    "132206.768000",
    "132208.767000",
    "132210.768000",
    "132212.768000",
    "132214.767000",
    "132216.767000",
    "132218.767000",
    "132220.768000",
    "132222.769000",
    "132224.769000",
    "132226.767000",
    "132228.768000",
    "132230.767000",
    "132232.768000",
    "132234.767000",
    "132236.767000",
    "132238.769000",
    "132240.768000",
    "132242.768000",
    "132244.767000",
    "132246.767000",
    "132248.767000",
    "132250.767000",
    "132252.768000",
    "132254.768000",
    "132256.768000",
    "132258.768000",
    "132300.768000",
    "132302.768000",
    "132304.767000",
    "132306.768000",
    "132308.768000",
    "132310.767000",
    "132312.768000",
    "132314.768000",
    "132316.769000",
    "132318.768000",
    "132320.767000",
    "132322.767000",
    "132324.767000",
    "132326.767000",
    "132328.767000",
    "132330.769000",
    "132332.769000",
    "132334.768000",
    "132336.767000",
    "132338.768000",
    "132340.768000",
    "132342.768000",
    "132344.768000",
    "132346.767000",
    "132348.768000",
    "132350.768000",
    "132352.768000",
    "132354.767000",
    "132356.768000",
    "132358.767000",
    "132400.768000",
    "132402.767000",
    "132404.767000",
    "132406.768000",
    "132408.769000",
    "132410.768000",
    "132412.767000",
    "132414.767000",
    "132416.767000",
    "132418.767000",
    "132420.768000",
    "132422.767000",
    "132424.768000",
    "132426.769000",
    "132428.767000",
    "132430.767000",
    "132432.768000",
    "132434.767000",
    "132436.767000",
    "132438.768000",
    "132440.769000",
    "132442.769000",
    "132444.769000",
    "132446.767000",
    "132448.767000",
    "132450.768000",
    "132452.767000",
    "132454.767000",
    "132456.768000",
    "132458.768000",
    "132500.768000",
    "132502.769000",
    "132504.768000",
    "132506.768000",
    "132508.768000",
    "132510.768000",
    "132512.768000",
    "132514.767000",
    "132516.768000",
    "132518.768000",
    "132520.768000",
    "132522.768000",
    "132524.768000",
    "132526.767000",
    "132528.767000",
    "132530.767000",
    "132532.780000",
    "132534.769000",
    "132536.768000",
    "132538.767000",
    "132540.767000",
    "132542.768000",
    "132544.767000",
    "132546.767000",
    "132548.767000",
    "132550.768000",
    "132552.768000",
    "132554.768000",
    "132556.768000",
    "132558.768000",
    "132600.768000",
    "132602.768000",
    "132604.768000",
    "132606.768000",
    "132608.769000",
    "132610.769000",
    "132612.769000",
    "132614.767000",
    "132616.767000",
    "132618.767000",
    "132620.768000",
    "132622.767000",
    "132624.767000",
    "132626.768000",
    "132628.769000",
    "132630.768000",
    "132632.768000",
    "132634.768000",
    "132636.767000",
    "132638.767000",
    "132640.767000",
    "132642.767000",
    "132644.768000",
    "132646.769000",
    "132648.767000",
    "132650.768000",
    "132652.767000",
    "132654.767000",
    "132656.767000",
    "132658.768000",
    "132700.768000",
    "132702.769000",
    "132704.768000",
    "132706.768000",
    "132708.767000",
    "132710.768000",
    "132712.767000",
    "132714.768000",
    "132716.767000",
    "132718.768000",
    "132720.768000",
    "132722.769000",
    "132724.767000",
    "132726.558000"
   ],
   "InstanceCreationTime": [
    "131857.272000",
    "131858.767000",
    "131900.767000",
    "131902.767000",
    "131904.767000",
    "131906.767000",
    "131908.768000",
    "131910.768000",
    "131912.768000",
    "131914.767000",
    "131916.767000",
    "131918.767000",
    "131920.767000",
    "131922.767000",
    "131924.767000",
    "131926.769000",
    "131928.768000",
    "131930.768000",
    "131932.767000",
    "131934.767000",
    "131936.767000",
    "131938.767000",
    "131940.767000",
    "131942.767000",
    "131944.768000",
    "131946.768000",
    "131948.767000",
    "131950.767000",
    "131952.767000",
    "131954.767000",
    "131956.767000",
    "131958.767000",
    "132000.767000",
    "132002.768000",
    "132004.768000",
    "132006.768000",
    "132008.767000",
    "132010.768000",
    "132012.767000",
    "132014.767000",
    "132016.767000",
    "132018.769000",
    "132020.768000",
    "132022.768000",
    "132024.768000",
    "132026.768000",
    "132028.768000",
    "132030.767000",
    "132032.767000",
    "132034.768000",
    "132036.769000",
    "132038.768000",
    "132040.769000",
    "132042.767000",
    "132044.767000",
    "132046.767000",
    "132048.767000",
    "132050.768000",
    "132052.768000",
    "132054.768000",
    "132056.768000",
    "132058.767000",
    "132100.768000",
    "132102.768000",
    "132104.767000",
    "132106.767000",
    "132108.767000",
    "132110.768000",
    "132112.768000",
    "132114.768000",
    "132116.767000",
    "132118.768000",
    "132120.767000",
    "132122.767000",
    "132124.767000",
    "132126.768000",
    "132128.769000",
    "132130.768000",
    "132132.768000",
    "132134.767000",
    "132136.767000",
    "132138.767000",
    "132140.767000",
    "132142.767000",
    "132144.768000",
    "132146.769000",
    "132148.769000",
    "132150.769000",
    "132152.768000",
    "132154.768000",
    "132156.767000",
    "132158.767000",
    "132200.767000",
    "132202.767000",
    "132204.769000",
    "132206.768000",
    "132208.767000",
    "132210.768000",
    "132212.768000",
    "132214.767000",
    "132216.767000",
    "132218.767000",
    "132220.768000",
    "132222.769000",
    "132224.769000",
    "132226.767000",
    "132228.768000",
    "132230.767000",
    "132232.768000",
    "132234.767000",
    "132236.767000",
    "132238.769000",
    "132240.768000",
    "132242.768000",
    "132244.767000",
    "132246.767000",
    "132248.767000",
    "132250.767000",
    "132252.768000",
    "132254.768000",
    "132256.768000",
    "132258.768000",
    "132300.768000",
    "132302.768000",
    "132304.767000",
    "132306.768000",
    "132308.768000",
    "132310.767000",
    "132312.768000",
    "132314.768000",
    "132316.769000",
    "132318.768000",
    "132320.767000",
    "132322.767000",
    "132324.767000",
    "132326.767000",
    "132328.767000",
    "132330.769000",
    "132332.769000",
    "132334.768000",
    "132336.767000",
    "132338.768000",
    "132340.768000",
    "132342.768000",
    "132344.768000",
    "132346.767000",
    "132348.768000",
    "132350.768000",
    "132352.768000",
    "132354.767000",
    "132356.768000",
    "132358.767000",
    "132400.768000",
    "132402.767000",
    "132404.767000",
    "132406.768000",
    "132408.769000",
    "132410.768000",
    "132412.767000",
    "132414.767000",
    "132416.767000",
    "132418.767000",
    "132420.768000",
    "132422.767000",
    "132424.768000",
    "132426.769000",
    "132428.767000",
    "132430.767000",
    "132432.768000",
    "132434.767000",
    "132436.767000",
    "132438.768000",
    "132440.769000",
    "132442.769000",
    "132444.769000",
    "132446.767000",
    "132448.767000",
    "132450.768000",
    "132452.767000",
    "132454.767000",
    "132456.768000",
    "132458.768000",
    "132500.768000",
    "132502.769000",
    "132504.768000",
    "132506.768000",
    "132508.768000",
    "132510.768000",
    "132512.768000",
    "132514.767000",
    "132516.768000",
    "132518.768000",
    "132520.768000",
    "132522.768000",
    "132524.768000",
    "132526.767000",
    "132528.767000",
    "132530.767000",
    "132532.780000",
    "132534.769000",
    "132536.768000",
    "132538.767000",
    "132540.767000",
    "132542.768000",
    "132544.767000",
    "132546.767000",
    "132548.767000",
    "132550.768000",
    "132552.768000",
    "132554.768000",
    "132556.768000",
    "132558.768000",
    "132600.768000",
    "132602.768000",
    "132604.768000",
    "132606.768000",
    "132608.769000",
    "132610.769000",
    "132612.769000",
    "132614.767000",
    "132616.767000",
    "132618.767000",
    "132620.768000",
    "132622.767000",
    "132624.767000",
    "132626.768000",
    "132628.769000",
    "132630.768000",
    "132632.768000",
    "132634.768000",
    "132636.767000",
    "132638.767000",
    "132640.767000",
    "132642.767000",
    "132644.768000",
    "132646.769000",
    "132648.767000",
    "132650.768000",
    "132652.767000",
    "132654.767000",
    "132656.767000",
    "132658.768000",
    "132700.768000",
    "132702.769000",
    "132704.768000",
    "132706.768000",
    "132708.767000",
    "132710.768000",
    "132712.767000",
    "132714.768000",
    "132716.767000",
    "132718.768000",
    "132720.768000",
    "132722.769000",
    "132724.767000",
    "132726.558000"
   ],
   "InstanceNumber": [
    1,
    2,
    3,
    4,
    5,
    6,
    7,
    8,
    9,
    10,
    11,
    12,
    13,
    14,
    15,
    16,
    17,
    18,
    19,
    20,
    21,
    22,
    23,
    24,
    25,
    26,
    27,
    28,
    29,
    30,
    31,
    32,
    33,
    34,
    35,
    36,
    37,
    38,
    39,
    40,
    41,
    42,
    43,
    44,
    45,
    46,
    47,
    48,
    49,
    50,
    51,
    52,
    53,
    54,
    55,
    56,
    57,
    58,
    59,
    60,
    61,
    62,
    63,
    64,
    65,
    66,
    67,
    68,
    69,
    70,
    71,
    72,
    73,
    74,
    75,
    76,
    77,
    78,
    79,
    80,
    81,
    82,
    83,
    84,
    85,
    86,
    87,
    88,
    89,
    90,
    91,
    92,
    93,
    94,
    95,
    96,
    97,
    98,
    99,
    100,
    101,
    102,
    103,
    104,
    105,
    106,
    107,
    108,
    109,
    110,
    111,
    112,
    113,
    114,
    115,
    116,
    117,
    118,
    119,
    120,
    121,
    122,
    123,
    124,
    125,
    126,
    127,
    128,
    129,
    130,
    131,
    132,
    133,
    134,
    135,
    136,
    137,
    138,
    139,
    140,
    141,
    142,
    143,
    144,
    145,
    146,
    147,
    148,
    149,
    150,
    151,
    152,
    153,
    154,
    155,
    156,
    157,
    158,
    159,
    160,
    161,
    162,
    163,
    164,
    165,
    166,
    167,
    168,
    169,
    170,
    171,
    172,
    173,
    174,
    175,
    176,
    177,
    178,
    179,
    180,
    181,
    182,
    183,
    184,
    185,
    186,
    187,
    188,
    189,
    190,
    191,
    192,
    193,
    194,
    195,
    196,
    197,
    198,
    199,
    200,
    201,
    202,
    203,
    204,
    205,
    206,
    207,
    208,
    209,
    210,
    211,
    212,
    213,
    214,
    215,
    216,
    217,
    218,
    219,
    220,
    221,
    222,
    223,
    224,
    225,
    226,
    227,
    228,
    229,
    230,
    231,
    232,
    233,
    234,
    235,
    236,
    237,
    238,
    239,
    240,
    241,
    242,
    243,
    244,
    245,
    246,
    247,
    248,
    249,
    250,
    251,
    252,
    253,
    254,
    255,
    256
   ],
   "LargestImagePixelValue": [
    2515,
    2499,
    2559,
    2489,
    2507,
    2503,
    2509,
    2505,
    2489,
    2577,
    2586,
    2650,
    2669,
    2532,
    2512,
    2677,
    2684,
    2673,
    2526,
    2524,
    2498,
    2622,
    2660,
    2666,
    2519,
    2494,
    2499,
    2516,
    2495,
    2505,
    2480,
    2542,
    2474,
    2485,
    2506,
    2499,
    2502,
    2501,
    2503,
    2487,
    2476,
    2512,
    2514,
    2489,
    2460,
    2534,
    2472,
    2504,
    2495,
    2528,
    2517,
    2575,
    2483,
    2474,
    2471,
    2502,
    2543,
    2568,
    2500,
    2491,
    2494,
    2484,
    2490,
    2511,
    2510,
    2506,
    2501,
    2488,
    2497,
    2495,
    2521,
    2509,
    2499,
    2514,
    2497,
    2517,
    2499,
    2501,
    2488,
    2516,
    2533,
    2533,
    2513,
    2539,
    2535,
    2529,
    2528,
    2517,
    2544,
    2547,
    2545,
    2543,
    2524,
    2532,
    2536,
    2544,
    2535,
    2517,
    2528,
    2537,
    2560,
    2561,
    2559,
    2554,
    2558,
    2585,
    2590,
    2590,
    2580,
    2544,
    2568,
    2558,
    2577,
    2589,
    2605,
    2578,
    2556,
    2560,
    2560,
    2569,
    2564,
    2557,
    2546,
    2545,
    2568,
    2565,
    2574,
    2527,
    2539,
    2554,
    2557,
    2548,
    2540,
    2528,
    2543,
    2542,
    2535,
    2556,
    2552,
    2534,
    2535,
    2523,
    2552,
    2660,
    2580,
    2605,
    2582,
    2562,
    2559,
    2552,
    2585,
    2546,
    2561,
    2531,
    2578,
    2533,
    2556,
    2563,
    2552,
    2569,
    2577,
    2513,
    2540,
    2538,
    2538,
    2548,
    2534,
    2538,
    2587,
    2555,
    2566,
    2550,
    2552,
    2538,
    2533,
    2564,
    2581,
    2527,
    2525,
    2566,
    2552,
    2563,
    2557,
    2552,
    2537,
    2575,
    2567,
    2548,
    2557,
    2556,
    2546,
    2611,
    2566,
    2584,
    2573,
    2567,
    2578,
    2563,
    2557,
    2554,
    2582,
    2555,
    2566,
    2575,
    2575,
    2561,
    2561,
    2577,
    2558,
    2546,
    2538,
    2566,
    2546,
    2561,
    2550,
    2582,
    2577,
    2542,
    2555,
    2534,
    2549,
    2545,
    2579,
    2572,
    2540,
    2556,
    2554,
    2554,
    2555,
    2549,
    2521,
    2556,
    2543,
    2549,
    2537,
    2543,
    2522,
    2551,
    2566,
    2559,
    2568,
    2569,
    2555,
    2745,
    2525,
    2522,
    2556,
    2547,
    2538,
    2536,
    2549,
    2558,
    2586,
    2564,
    2557,
    2539
   ],
   "WindowCenter": [
    736.0,
    736.0,
    736.0,
    736.0,
    737.0,
    736.0,
    736.0,
    736.0,
    736.0,
    738.0,
    740.0,
    740.0,
    740.0,
    738.0,
    737.0,
    740.0,
    740.0,
    740.0,
    737.0,
    737.0,
    737.0,
    738.0,
    740.0,
    739.0,
    736.0,
    736.0,
    736.0,
    736.0,
    737.0,
    737.0,
    738.0,
    737.0,
    736.0,
    736.0,
    736.0,
    736.0,
    736.0,
    736.0,
    736.0,
    735.0,
    736.0,
    736.0,
    736.0,
    736.0,
    736.0,
    737.0,
    737.0,
    738.0,
    739.0,
    739.0,
    739.0,
    738.0,
    737.0,
    736.0,
    737.0,
    738.0,
    738.0,
    737.0,
    736.0,
    735.0,
    735.0,
    734.0,
    735.0,
    734.0,
    734.0,
    735.0,
    735.0,
    734.0,
    735.0,
    736.0,
    736.0,
    735.0,
    735.0,
    734.0,
    735.0,
    735.0,
    735.0,
    736.0,
    737.0,
    736.0,
    735.0,
    735.0,
    736.0,
    736.0,
    736.0,
    735.0,
    736.0,
    736.0,
    736.0,
    736.0,
    736.0,
    735.0,
    734.0,
    735.0,
    735.0,
    735.0,
    735.0,
    734.0,
    734.0,
    735.0,
    736.0,
    738.0,
    737.0,
    737.0,
    737.0,
    739.0,
    739.0,
    738.0,
    738.0,
