{
  "AcquisitionMatrixPE": 100,
  "AcquisitionNumber": 1,
  "AcquisitionTime": "14:38:57.750000",
  "BandwidthPerPixelPhaseEncode": 18.519,
  "BaseResolution": 100,
  "BodyPartExamined": "BRAIN",
  "ConsistencyInfo": "N4_VE11C_LATEST_20160120",
  "ConversionSoftware": "dcm2niix",
  "ConversionSoftwareVersion": "v1.0.20180622 GCC4.9.2",
  "DerivedVendorReportedEchoSpacing": 0.000539986,
  "DeviceSerialNumber": "166078",
  "DwellTime": 2.1e-06,
  "EchoTime": 0.034,
  "EchoTrainLength": 100,
  "EffectiveEchoSpacing": 0.000539986,
  "FlipAngle": 90,
  "ImageOrientationPatientDICOM": [0.999962, 0.00193335, 0.00850967, -2.73757e-09, 0.975149, -0.221548],
  "ImageType": [
    "ORIGINAL",
    "PRIMARY",
    "M",
    "ND",
    "MOSAIC"
],
  "InPlanePhaseEncodingDirectionDICOM": "COL",
  "InstitutionAddress": "Street_StreetNo_Bei_Jing_District_CN_ZIP",
  "InstitutionName": "BeiJing_Normal_University",
  "InstitutionalDepartmentName": "Department",
  "MRAcquisitionType": "2D",
  "MagneticFieldStrength": 3,
  "Manufacturer": "Siemens",
  "ManufacturersModelName": "Prisma",
  "Modality": "MR",
  "MultibandAccelerationFactor": 3,
  "PartialFourier": 1,
  "PatientPosition": "HFS",
  "PercentPhaseFOV": 100,
  "PhaseEncodingDirection": "j-",
  "PhaseEncodingSteps": 100,
  "PhaseResolution": 1,
  "PixelBandwidth": 2380,
  "ProcedureStepDescription": "BNU_P2018_64CH_Zhen.ZongLei",
  "ProtocolName": "bold_100x100_s3_2x2x2_static_256",
  "PulseSequenceDetails": "%SiemensSeq%_ep2d_bold",
  "ReceiveCoilActiveElements": "HC1-7;NC1",
  "ReceiveCoilName": "HeadNeck_64",
  "ReconMatrixPE": 100,
  "RepetitionTime": 2,
  "SAR": 0.0768872,
  "ScanOptions": "FS",
  "ScanningSequence": "EP",
  "SequenceName": "_epfid2d1_100",
  "SequenceVariant": "SK",
  "SeriesDescription": "bold_100x100_s3_2x2x2_static_256",
  "SeriesNumber": 14,
  "ShimSetting": [-5463, -11511, -1295, 471, -65, -229, -93, 55],
  "SliceThickness": 2,
  "SliceTiming": [1.485, 0, 0.99, 0.0825, 1.0725, 0.165, 1.155, 0.2475, 1.2375, 0.33, 1.32, 0.4125, 1.4025, 0.5775, 1.5675, 0.66, 1.65, 0.7425, 1.7325, 0.825, 1.815, 0.9075, 1.8975, 0.495, 1.485, 0, 0.99, 0.0825, 1.0725, 0.165, 1.155, 0.2475, 1.2375, 0.33, 1.32, 0.4125, 1.4025, 0.5775, 1.5675, 0.66, 1.65, 0.7425, 1.7325, 0.825, 1.815, 0.9075, 1.8975, 0.495, 1.485, 0, 0.99, 0.0825, 1.0725, 0.165, 1.155, 0.2475, 1.2375, 0.33, 1.32, 0.4125, 1.4025, 0.5775, 1.5675, 0.66, 1.65, 0.7425, 1.7325, 0.825, 1.815, 0.9075, 1.8975, 0.495],
  "SoftwareVersions": "syngo_MR_E11",
  "SpacingBetweenSlices": 2,
  "StationName": "AWP166078",
  "TaskName": "naturalvision",
  "TotalReadoutTime": 0.0534586,
  "TxRefAmp": 218.717,
  "dcmmeta_affine": [
    [-1.999923825263977, -5.475131903409647e-09, 0.017453065142035484, 101.54609680175781],
    [-0.003866705810651183, 1.9502986669540405, -0.4430801272392273, -77.69586944580078],
    [0.017019344493746758, 0.44309699535369873, 1.95022451877594, -102.74598693847656],
    [0.0, 0.0, 0.0, 1.0]
],
  "dcmmeta_reorient_transform": [
    [0.0, -1.0, 0.0, 99.0],
    [1.0, 0.0, 0.0, 0.0],
    [0.0, 0.0, 1.0, 0.0],
    [0.0, 0.0, 0.0, 1.0]
],
  "dcmmeta_shape": [100, 100, 72, 256],
  "dcmmeta_slice_dim": 2,
  "dcmmeta_version": 0.6,
  "global": {
    "const": {
      "AcquisitionMatrix": [100, 0, 0, 100],
      "AngioFlag": "N",
      "BitsAllocated": 16,
      "BitsStored": 12,
      "BodyPartExamined": "BRAIN",
      "Columns": 900,
      "EchoNumbers": 1,
      "EchoTime": 34.0,
      "EchoTrainLength": 100,
      "FlipAngle": 90.0,
      "HighBit": 11,
      "ImageOrientationPatient": [0.99996192308933, 0.00193335288668, 0.00850967203305, -2.737566e-09, 0.97514935360807, -0.2215485006895],
      "ImagePositionPatient": [-901.5156357625, -897.04986423578, 111.55168010475],
      "ImageType": [
        "ORIGINAL",
        "PRIMARY",
        "M",
        "ND",
        "MOSAIC"
],
      "ImagedNucleus": "1H",
      "ImagingFrequency": 123.257755,
      "InPlanePhaseEncodingDirection": "COL",
      "MRAcquisitionType": "2D",
      "MagneticFieldStrength": 3.0,
      "Manufacturer": "SIEMENS",
      "ManufacturerModelName": "Prisma",
      "Modality": "MR",
      "NumberOfAverages": 1.0,
      "NumberOfPhaseEncodingSteps": 100,
      "PercentPhaseFieldOfView": 100.0,
      "PercentSampling": 100.0,
      "PerformedProcedureStepStartTime": "130903.284000",
      "PhotometricInterpretation": "MONOCHROME2",
      "PixelBandwidth": 2380.0,
      "PixelRepresentation": 0,
      "PixelSpacing": [2.0, 2.0],
      "ProtocolName": "bold_100x100_s3_2x2x2_static_256",
      "RepetitionTime": 2000.0,
      "Rows": 900,
      "SAR": 0.0768872168111,
      "SamplesPerPixel": 1,
      "ScanOptions": "FS",
      "ScanningSequence": "EP",
      "SequenceName": "*epfid2d1_100",
      "SequenceVariant": "SK",
      "SeriesDescription": "bold_100x100_s3_2x2x2_static_256",
      "SeriesNumber": 14,
      "SeriesTime": "143900.815000",
      "SliceLocation": -82.089972678415,
      "SliceThickness": 2.0,
      "SmallestImagePixelValue": 0,
      "SoftwareVersions": "syngo MR E11",
      "SpacingBetweenSlices": 2.0000000415733,
      "SpecificCharacterSet": "ISO_IR 100",
      "StudyID": "1",
      "StudyTime": "130903.184000",
      "TransmitCoilName": "Body",
      "VariableFlipAngleFlag": "N",
      "WindowCenterWidthExplanation": "Algo1",
      "dBdt": 0.0},
    "slices": {}
  },
  "time": {
    "samples": {
      "AcquisitionNumber": [1, 2, 3, 4, 5, 6, 7, 8, 9, 10, 11, 12, 13, 14, 15, 16, 17, 18, 19, 20, 21, 22, 23, 24, 25, 26, 27, 28, 29, 30, 31, 32, 33, 34, 35, 36, 37, 38, 39, 40, 41, 42, 43, 44, 45, 46, 47, 48, 49, 50, 51, 52, 53, 54, 55, 56, 57, 58, 59, 60, 61, 62, 63, 64, 65, 66, 67, 68, 69, 70, 71, 72, 73, 74, 75, 76, 77, 78, 79, 80, 81, 82, 83, 84, 85, 86, 87, 88, 89, 90, 91, 92, 93, 94, 95, 96, 97, 98, 99, 100, 101, 102, 103, 104, 105, 106, 107, 108, 109, 110, 111, 112, 113, 114, 115, 116, 117, 118, 119, 120, 121, 122, 123, 124, 125, 126, 127, 128, 129, 130, 131, 132, 133, 134, 135, 136, 137, 138, 139, 140, 141, 142, 143, 144, 145, 146, 147, 148, 149, 150, 151, 152, 153, 154, 155, 156, 157, 158, 159, 160, 161, 162, 163, 164, 165, 166, 167, 168, 169, 170, 171, 172, 173, 174, 175, 176, 177, 178, 179, 180, 181, 182, 183, 184, 185, 186, 187, 188, 189, 190, 191, 192, 193, 194, 195, 196, 197, 198, 199, 200, 201, 202, 203, 204, 205, 206, 207, 208, 209, 210, 211, 212, 213, 214, 215, 216, 217, 218, 219, 220, 221, 222, 223, 224, 225, 226, 227, 228, 229, 230, 231, 232, 233, 234, 235, 236, 237, 238, 239, 240, 241, 242, 243, 244, 245, 246, 247, 248, 249, 250, 251, 252, 253, 254, 255, 256],
      "AcquisitionTime": ["143857.750000", "143859.750000", "143901.750000", "143903.750000", "143905.750000", "143907.750000", "143909.750000", "143911.750000", "143913.750000", "143915.750000", "143917.750000", "143919.750000", "143921.750000", "143923.750000", "143925.750000", "143927.750000", "143929.750000", "143931.750000", "143933.750000", "143935.750000", "143937.750000", "143939.750000", "143941.750000", "143943.750000", "143945.750000", "143947.750000", "143949.750000", "143951.750000", "143953.750000", "143955.750000", "143957.750000", "143959.750000", "144001.750000", "144003.750000", "144005.750000", "144007.750000", "144009.750000", "144011.750000", "144013.750000", "144015.750000", "144017.750000", "144019.750000", "144021.750000", "144023.750000", "144025.750000", "144027.750000", "144029.750000", "144031.750000", "144033.750000", "144035.750000", "144037.750000", "144039.750000", "144041.750000", "144043.750000", "144045.750000", "144047.750000", "144049.750000", "144051.750000", "144053.750000", "144055.750000", "144057.750000", "144059.750000", "144101.750000", "144103.750000", "144105.750000", "144107.750000", "144109.750000", "144111.750000", "144113.750000", "144115.750000", "144117.750000", "144119.750000", "144121.750000", "144123.750000", "144125.750000", "144127.750000", "144129.750000", "144131.750000", "144133.750000", "144135.750000", "144137.750000", "144139.750000", "144141.750000", "144143.750000", "144145.750000", "144147.750000", "144149.750000", "144151.750000", "144153.750000", "144155.750000", "144157.750000", "144159.750000", "144201.750000", "144203.750000", "144205.750000", "144207.750000", "144209.750000", "144211.750000", "144213.750000", "144215.750000", "144217.750000", "144219.750000", "144221.750000", "144223.750000", "144225.750000", "144227.750000", "144229.750000", "144231.750000", "144233.750000", "144235.750000", "144237.750000", "144239.750000", "144241.750000", "144243.750000", "144245.750000", "144247.750000", "144249.750000", "144251.750000", "144253.750000", "144255.750000", "144257.750000", "144259.750000", "144301.750000", "144303.750000", "144305.750000", "144307.750000", "144309.750000", "144311.750000", "144313.750000", "144315.750000", "144317.750000", "144319.750000", "144321.750000", "144323.750000", "144325.750000", "144327.750000", "144329.750000", "144331.750000", "144333.750000", "144335.750000", "144337.750000", "144339.750000", "144341.750000", "144343.750000", "144345.750000", "144347.750000", "144349.750000", "144351.750000", "144353.750000", "144355.750000", "144357.750000", "144359.750000", "144401.750000", "144403.750000", "144405.750000", "144407.750000", "144409.750000", "144411.750000", "144413.750000", "144415.750000", "144417.750000", "144419.750000", "144421.750000", "144423.750000", "144425.750000", "144427.750000", "144429.750000", "144431.750000", "144433.750000", "144435.750000", "144437.750000", "144439.750000", "144441.750000", "144443.750000", "144445.750000", "144447.750000", "144449.750000", "144451.750000", "144453.750000", "144455.750000", "144457.750000", "144459.750000", "144501.750000", "144503.750000", "144505.750000", "144507.750000", "144509.750000", "144511.750000", "144513.750000", "144515.750000", "144517.750000", "144519.750000", "144521.750000", "144523.750000", "144525.750000", "144527.750000", "144529.750000", "144531.750000", "144533.750000", "144535.750000", "144537.750000", "144539.750000", "144541.750000", "144543.750000", "144545.750000", "144547.750000", "144549.750000", "144551.750000", "144553.750000", "144555.750000", "144557.750000", "144559.750000", "144601.750000", "144603.750000", "144605.750000", "144607.750000", "144609.750000", "144611.750000", "144613.750000", "144615.750000", "144617.750000", "144619.750000", "144621.750000", "144623.750000", "144625.750000", "144627.750000", "144629.750000", "144631.750000", "144633.750000", "144635.750000", "144637.750000", "144639.750000", "144641.750000", "144643.750000", "144645.750000", "144647.750000", "144649.750000", "144651.750000", "144653.750000", "144655.750000", "144657.750000", "144659.750000", "144701.750000", "144703.750000", "144705.750000", "144707.750000", "144709.750000", "144711.750000", "144713.750000", "144715.750000", "144717.750000", "144719.750000", "144721.750000", "144723.750000", "144725.750000", "144727.750000"],
      "ContentTime": ["143900.818000", "143902.314000", "143904.312000", "143906.313000", "143908.312000", "143910.312000", "143912.313000", "143914.312000", "143916.314000", "143918.313000", "143920.314000", "143922.313000", "143924.313000", "143926.313000", "143928.313000", "143930.312000", "143932.312000", "143934.313000", "143936.313000", "143938.312000", "143940.312000", "143942.313000", "143944.313000", "143946.312000", "143948.313000", "143950.312000", "143952.314000", "143954.314000", "143956.313000", "143958.312000", "144000.312000", "144002.312000", "144004.312000", "144006.313000", "144008.312000", "144010.314000", "144012.314000", "144014.313000", "144016.313000", "144018.312000", "144020.312000", "144022.312000", "144024.312000", "144026.313000", "144028.314000", "144030.313000", "144032.313000", "144034.312000", "144036.312000", "144038.312000", "144040.312000", "144042.312000", "144044.313000", "144046.314000", "144048.312000", "144050.313000", "144052.312000", "144054.312000", "144056.312000", "144058.312000", "144100.312000", "144102.313000", "144104.313000", "144106.312000", "144108.312000", "144110.312000", "144112.312000", "144114.313000", "144116.312000", "144118.312000", "144120.313000", "144122.314000", "144124.312000", "144126.312000", "144128.312000", "144130.313000", "144132.312000", "144134.313000", "144136.313000", "144138.313000", "144140.313000", "144142.312000", "144144.312000", "144146.313000", "144148.312000", "144150.313000", "144152.312000", "144154.313000", "144156.314000", "144158.312000", "144200.312000", "144202.313000", "144204.313000", "144206.313000", "144208.313000", "144210.313000", "144212.313000", "144214.314000", "144216.312000", "144218.313000", "144220.312000", "144222.313000", "144224.312000", "144226.313000", "144228.313000", "144230.313000", "144232.313000", "144234.313000", "144236.313000", "144238.313000", "144240.313000", "144242.312000", "144244.312000", "144246.314000", "144248.314000", "144250.314000", "144252.312000", "144254.313000", "144256.313000", "144258.312000", "144300.312000", "144302.312000", "144304.313000", "144306.313000", "144308.312000", "144310.313000", "144312.313000", "144314.312000", "144316.312000", "144318.312000", "144320.312000", "144322.313000", "144324.313000", "144326.312000", "144328.313000", "144330.312000", "144332.312000", "144334.313000", "144336.312000", "144338.313000", "144340.314000", "144342.313000", "144344.313000", "144346.312000", "144348.313000", "144350.312000", "144352.313000", "144354.312000", "144356.314000", "144358.313000", "144400.313000", "144402.312000", "144404.312000", "144406.313000", "144408.313000", "144410.313000", "144412.313000", "144414.314000", "144416.314000", "144418.313000", "144420.312000", "144422.313000", "144424.313000", "144426.312000", "144428.313000", "144430.313000", "144432.313000", "144434.314000", "144436.312000", "144438.313000", "144440.313000", "144442.312000", "144444.312000", "144446.312000", "144448.312000", "144450.314000", "144452.313000", "144454.312000", "144456.312000", "144458.312000", "144500.313000", "144502.312000", "144504.312000", "144506.314000", "144508.313000", "144510.314000", "144512.313000", "144514.312000", "144516.312000", "144518.313000", "144520.312000", "144522.312000", "144524.313000", "144526.314000", "144528.313000", "144530.313000", "144532.313000", "144534.313000", "144536.312000", "144538.313000", "144540.313000", "144542.313000", "144544.313000", "144546.312000", "144548.313000", "144550.313000", "144552.313000", "144554.313000", "144556.312000", "144558.312000", "144600.314000", "144602.314000", "144604.313000", "144606.312000", "144608.312000", "144610.312000", "144612.312000", "144614.312000", "144616.314000", "144618.314000", "144620.313000", "144622.312000", "144624.313000", "144626.312000", "144628.312000", "144630.312000", "144632.312000", "144634.314000", "144636.314000", "144638.313000", "144640.312000", "144642.313000", "144644.313000", "144646.313000", "144648.313000", "144650.312000", "144652.313000", "144654.314000", "144656.313000", "144658.312000", "144700.313000", "144702.313000", "144704.329000", "144706.312000", "144708.312000", "144710.314000", "144712.314000", "144714.313000", "144716.312000", "144718.312000", "144720.312000", "144722.313000", "144724.313000", "144726.314000", "144728.314000", "144730.096000"],
      "InstanceCreationTime": ["143900.818000", "143902.314000", "143904.312000", "143906.313000", "143908.312000", "143910.312000", "143912.313000", "143914.312000", "143916.314000", "143918.313000", "143920.314000", "143922.313000", "143924.313000", "143926.313000", "143928.313000", "143930.312000", "143932.312000", "143934.313000", "143936.313000", "143938.312000", "143940.312000", "143942.313000", "143944.313000", "143946.312000", "143948.313000", "143950.312000", "143952.314000", "143954.314000", "143956.313000", "143958.312000", "144000.312000", "144002.312000", "144004.312000", "144006.313000", "144008.312000", "144010.314000", "144012.314000", "144014.313000", "144016.313000", "144018.312000", "144020.312000", "144022.312000", "144024.312000", "144026.313000", "144028.314000", "144030.313000", "144032.313000", "144034.312000", "144036.312000", "144038.312000", "144040.312000", "144042.312000", "144044.313000", "144046.314000", "144048.312000", "144050.313000", "144052.312000", "144054.312000", "144056.312000", "144058.312000", "144100.312000", "144102.313000", "144104.313000", "144106.312000", "144108.312000", "144110.312000", "144112.312000", "144114.313000", "144116.312000", "144118.312000", "144120.313000", "144122.314000", "144124.312000", "144126.312000", "144128.312000", "144130.313000", "144132.312000", "144134.313000", "144136.313000", "144138.313000", "144140.313000", "144142.312000", "144144.312000", "144146.313000", "144148.312000", "144150.313000", "144152.312000", "144154.313000", "144156.314000", "144158.312000", "144200.312000", "144202.313000", "144204.313000", "144206.313000", "144208.313000", "144210.313000", "144212.313000", "144214.314000", "144216.312000", "144218.313000", "144220.312000", "144222.313000", "144224.312000", "144226.313000", "144228.313000", "144230.313000", "144232.313000", "144234.313000", "144236.313000", "144238.313000", "144240.313000", "144242.312000", "144244.312000", "144246.314000", "144248.314000", "144250.314000", "144252.312000", "144254.313000", "144256.313000", "144258.312000", "144300.312000", "144302.312000", "144304.313000", "144306.313000", "144308.312000", "144310.313000", "144312.313000", "144314.312000", "144316.312000", "144318.312000", "144320.312000", "144322.313000", "144324.313000", "144326.312000", "144328.313000", "144330.312000", "144332.312000", "144334.313000", "144336.312000", "144338.313000", "144340.314000", "144342.313000", "144344.313000", "144346.312000", "144348.313000", "144350.312000", "144352.313000", "144354.312000", "144356.314000", "144358.313000", "144400.313000", "144402.312000", "144404.312000", "144406.313000", "144408.313000", "144410.313000", "144412.313000", "144414.314000", "144416.314000", "144418.313000", "144420.312000", "144422.313000", "144424.313000", "144426.312000", "144428.313000", "144430.313000", "144432.313000", "144434.314000", "144436.312000", "144438.313000", "144440.313000", "144442.312000", "144444.312000", "144446.312000", "144448.312000", "144450.314000", "144452.313000", "144454.312000", "144456.312000", "144458.312000", "144500.313000", "144502.312000", "144504.312000", "144506.314000", "144508.313000", "144510.314000", "144512.313000", "144514.312000", "144516.312000", "144518.313000", "144520.312000", "144522.312000", "144524.313000", "144526.314000", "144528.313000", "144530.313000", "144532.313000", "144534.313000", "144536.312000", "144538.313000", "144540.313000", "144542.313000", "144544.313000", "144546.312000", "144548.313000", "144550.313000", "144552.313000", "144554.313000", "144556.312000", "144558.312000", "144600.314000", "144602.314000", "144604.313000", "144606.312000", "144608.312000", "144610.312000", "144612.312000", "144614.312000", "144616.314000", "144618.314000", "144620.313000", "144622.312000", "144624.313000", "144626.312000", "144628.312000", "144630.312000", "144632.312000", "144634.314000", "144636.314000", "144638.313000", "144640.312000", "144642.313000", "144644.313000", "144646.313000", "144648.313000", "144650.312000", "144652.313000", "144654.314000", "144656.313000", "144658.312000", "144700.313000", "144702.313000", "144704.329000", "144706.312000", "144708.312000", "144710.314000", "144712.314000", "144714.313000", "144716.312000", "144718.312000", "144720.312000", "144722.313000", "144724.313000", "144726.314000", "144728.314000", "144730.096000"],
      "InstanceNumber": [1, 2, 3, 4, 5, 6, 7, 8, 9, 10, 11, 12, 13, 14, 15, 16, 17, 18, 19, 20, 21, 22, 23, 24, 25, 26, 27, 28, 29, 30, 31, 32, 33, 34, 35, 36, 37, 38, 39, 40, 41, 42, 43, 44, 45, 46, 47, 48, 49, 50, 51, 52, 53, 54, 55, 56, 57, 58, 59, 60, 61, 62, 63, 64, 65, 66, 67, 68, 69, 70, 71, 72, 73, 74, 75, 76, 77, 78, 79, 80, 81, 82, 83, 84, 85, 86, 87, 88, 89, 90, 91, 92, 93, 94, 95, 96, 97, 98, 99, 100, 101, 102, 103, 104, 105, 106, 107, 108, 109, 110, 111, 112, 113, 114, 115, 116, 117, 118, 119, 120, 121, 122, 123, 124, 125, 126, 127, 128, 129, 130, 131, 132, 133, 134, 135, 136, 137, 138, 139, 140, 141, 142, 143, 144, 145, 146, 147, 148, 149, 150, 151, 152, 153, 154, 155, 156, 157, 158, 159, 160, 161, 162, 163, 164, 165, 166, 167, 168, 169, 170, 171, 172, 173, 174, 175, 176, 177, 178, 179, 180, 181, 182, 183, 184, 185, 186, 187, 188, 189, 190, 191, 192, 193, 194, 195, 196, 197, 198, 199, 200, 201, 202, 203, 204, 205, 206, 207, 208, 209, 210, 211, 212, 213, 214, 215, 216, 217, 218, 219, 220, 221, 222, 223, 224, 225, 226, 227, 228, 229, 230, 231, 232, 233, 234, 235, 236, 237, 238, 239, 240, 241, 242, 243, 244, 245, 246, 247, 248, 249, 250, 251, 252, 253, 254, 255, 256],
      "LargestImagePixelValue": [2421, 2571, 2523, 2436, 2422, 2445, 2442, 2437, 2432, 2486, 2483, 2487, 2485, 2484, 2494, 2446, 2453, 2491, 2486, 2477, 2427, 2416, 2474, 2529, 2497, 2539, 2452, 2476, 2446, 2499, 2484, 2470, 2474, 2500, 2489, 2482, 2474, 2534, 2473, 2444, 2532, 2487, 2487, 2836, 2500, 2476, 2472, 2500, 2492, 2481, 2645, 2522, 2516, 2467, 2495, 2471, 2610, 2464, 2470, 2517, 2556, 2564, 2505, 2461, 2500, 2665, 2466, 2477, 2517, 2857, 2451, 2458, 2476, 2765, 2441, 2431, 2429, 2531, 2469, 2466, 2420, 2471, 2535, 2540, 2548, 2479, 2447, 2446, 2464, 2453, 2501, 2527, 2523, 2696, 2487, 2506, 2472, 2466, 2500, 2472, 2528, 2614, 2469, 2670, 2454, 2549, 2587, 2509, 2450, 2691, 2548, 2537, 2583, 2883, 2576, 2474, 2380, 2472, 2459, 2482, 2502, 2537, 2511, 2565, 2543, 2626, 2528, 2474, 2437, 2515, 2536, 2473, 2611, 2500, 2496, 2481, 2486, 2525, 2499, 2447, 2435, 2489, 2480, 2499, 2430, 2514, 2544, 2602, 2547, 2547, 2563, 2541, 2516, 2525, 2531, 2513, 2543, 2503, 2478, 2450, 2540, 2568, 2507, 2446, 2491, 2509, 2442, 2501, 2506, 2483, 2533, 2567, 2585, 2494, 2479, 2500, 2451, 2592, 2580, 2598, 2586, 2538, 2530, 2637, 2568, 2511, 2599, 2436, 2516, 2469, 2528, 2598, 2562, 2563, 2597, 2575, 2571, 2573, 2504, 2423, 2371, 2519, 2625, 2385, 2448, 2705, 2526, 2678, 2583, 2525, 2480, 2571, 2478, 2458, 2455, 2490, 2552, 2551, 2548, 2491, 2458, 2589, 2443, 2675, 2490, 2599, 2613, 2583, 2561, 2566, 2518, 2600, 2582, 2510, 2559, 2492, 2469, 2565, 2500, 2509, 2477, 2510, 2656, 2550, 2594, 2619, 2517, 2508, 2473, 2499, 2522, 2553, 2558, 2505, 2493, 2502],
      "WindowCenter": [723.0, 725.0, 724.0, 725.0, 726.0, 725.0, 725.0, 727.0, 728.0, 729.0, 728.0, 728.0, 728.0, 727.0, 727.0, 726.0, 725.0, 725.0, 726.0, 725.0, 723.0, 724.0, 726.0, 726.0, 726.0, 725.0, 724.0, 725.0, 726.0, 728.0, 728.0, 726.0, 725.0, 727.0, 727.0, 728.0, 727.0, 727.0, 726.0, 725.0, 727.0, 727.0, 730.0, 733.0, 726.0, 724.0, 725.0, 724.0, 724.0, 724.0, 727.0, 726.0, 726.0, 726.0, 726.0, 724.0, 725.0, 724.0, 725.0, 727.0, 729.0, 728.0, 726.0, 725.0, 726.0, 725.0, 724.0, 725.0, 726.0, 730.0, 726.0, 725.0, 726.0, 728.0, 723.0, 723.0, 723.0, 724.0, 724.0, 725.0, 725.0, 727.0, 729.0, 728.0, 727.0, 725.0, 725.0, 726.0, 727.0, 726.0, 725.0, 725.0, 725.0, 729.0, 726.0, 725.0, 725.0, 725.0, 727.0, 728.0, 727.0, 728.0, 725.0, 727.0, 725.0, 727.0, 728.0, 727.0, 725.0, 727.0, 726.0, 726.0, 726.0, 729.0, 726.0, 724.0, 722.0, 725.0, 725.0, 725.0, 726.0, 728.0, 727.0, 727.0, 725.0, 727.0, 726.0, 725.0, 725.0, 727.0, 729.0, 728.0, 729.0, 726.0, 725.0, 723.0, 724.0, 724.0, 725.0, 724.0, 724.0, 725.0, 727.0, 727.0, 727.0, 727.0, 727.0, 726.0, 726.0, 726.0, 725.0, 725.0, 727.0, 727.0, 728.0, 727.0, 728.0, 729.0, 728.0, 726.0, 726.0, 726.0, 727.0, 726.0, 726.0, 725.0, 724.0, 726.0, 727.0, 726.0, 726.0, 726.0, 726.0, 724.0, 724.0, 725.0, 725.0, 728.0, 728.0, 726.0, 726.0, 726.0, 727.0, 729.0, 727.0, 725.0, 726.0, 726.0, 726.0, 723.0, 724.0, 725.0, 726.0, 726.0, 725.0, 725.0, 727.0, 727.0, 726.0, 723.0, 723.0, 726.0, 727.0, 724.0, 725.0, 729.0, 729.0, 732.0, 729.0, 727.0, 725.0, 726.0, 724.0, 724.0, 725.0, 727.0, 727.0, 728.0, 730.0, 729.0, 727.0, 727.0, 725.0, 727.0, 726.0, 727.0, 728.0, 727.0, 727.0, 725.0, 725.0, 725.0, 724.0, 724.0, 726.0, 726.0, 726.0, 727.0, 726.0, 727.0, 726.0, 725.0, 727.0, 726.0, 726.0, 729.0, 728.0, 727.0, 726.0, 727.0, 729.0, 729.0, 729.0, 728.0, 726.0, 725.0],
      "WindowWidth": [1538.0, 1541.0, 1539.0, 1541.0, 1544.0, 1542.0, 1542.0, 1546.0, 1549.0, 1551.0, 1551.0, 1551.0, 1550.0, 1548.0, 1549.0, 1544.0, 1542.0, 1542.0, 1544.0, 1542.0, 1537.0, 1540.0, 1544.0, 1546.0, 1546.0, 1544.0, 1541.0, 1542.0, 1545.0, 1550.0, 1549.0, 1544.0, 1543.0, 1547.0, 1548.0, 1549.0, 1548.0, 1548.0, 1544.0, 1542.0, 1547.0, 1547.0, 1554.0, 1560.0, 1543.0, 1540.0, 1541.0, 1541.0, 1541.0, 1541.0, 1546.0, 1544.0, 1546.0, 1544.0, 1546.0, 1541.0, 1542.0, 1540.0, 1542.0, 1546.0, 1552.0, 1550.0, 1546.0, 1542.0, 1544.0, 1543.0, 1541.0, 1541.0, 1544.0, 1553.0, 1544.0, 1542.0, 1544.0, 1548.0, 1539.0, 1537.0, 1539.0, 1540.0, 1540.0, 1542.0, 1541.0, 1546.0, 1551.0, 1551.0, 1548.0, 1541.0, 1542.0, 1545.0, 1547.0, 1545.0, 1542.0, 1542.0, 1543.0, 1551.0, 1545.0, 1542.0, 1542.0, 1543.0, 1547.0, 1549.0, 1548.0, 1549.0, 1543.0, 1546.0, 1542.0, 1546.0, 1550.0, 1547.0, 1542.0, 1546.0, 1544.0, 1545.0, 1545.0, 1550.0, 1545.0, 1539.0, 1535.0, 1542.0, 1543.0, 1543.0, 1545.0, 1548.0, 1548.0, 1547.0, 1543.0, 1547.0, 1546.0, 1543.0, 1542.0, 1547.0, 1553.0, 1550.0, 1551.0, 1544.0, 1541.0, 1538.0, 1539.0, 1539.0, 1542.0, 1540.0, 1539.0, 1543.0, 1546.0, 1547.0, 1547.0, 1548.0, 1547.0, 1545.0, 1544.0, 1545.0, 1541.0, 1540.0, 1547.0, 1547.0, 1548.0, 1548.0, 1550.0, 1551.0, 1549.0, 1544.0, 1544.0, 1545.0, 1547.0, 1544.0, 1543.0, 1542.0, 1540.0, 1544.0, 1547.0, 1544.0, 1545.0, 1544.0, 1545.0, 1541.0, 1540.0, 1542.0, 1542.0, 1548.0, 1549.0, 1545.0, 1544.0, 1544.0, 1547.0, 1550.0, 1547.0, 1542.0, 1544.0, 1544.0, 1545.0, 1538.0, 1540.0, 1542.0, 1545.0, 1545.0, 1543.0, 1543.0, 1545.0, 1547.0, 1544.0, 1538.0, 1536.0, 1544.0, 1548.0, 1540.0, 1542.0, 1551.0, 1551.0, 1557.0, 1553.0, 1547.0, 1543.0, 1544.0, 1539.0, 1540.0, 1541.0, 1546.0, 1548.0, 1550.0, 1553.0, 1552.0, 1547.0, 1546.0, 1541.0, 1546.0, 1543.0, 1546.0, 1549.0, 1547.0, 1545.0, 1542.0, 1541.0, 1541.0, 1540.0, 1538.0, 1544.0, 1545.0, 1543.0, 1547.0, 1544.0, 1545.0, 1544.0, 1542.0, 1546.0, 1543.0, 1545.0, 1550.0, 1550.0, 1546.0, 1544.0, 1546.0, 1551.0, 1551.0, 1550.0, 1548.0, 1543.0, 1541.0]
    },
    "slices": {}
  }
}