{
 "AcquisitionMatrixPE": 100,
 "AcquisitionNumber": 1,
 "AcquisitionTime": "14:26:35.797500",
 "BandwidthPerPixelPhaseEncode": 18.519,
 "BaseResolution": 100,
 "BodyPartExamined": "BRAIN",
 "ConsistencyInfo": "N4_VE11C_LATEST_20160120",
 "ConversionSoftware": "dcm2niix",
 "ConversionSoftwareVersion": "v1.0.20180622 GCC4.9.2",
 "DerivedVendorReportedEchoSpacing": 0.000539986,
 "DeviceSerialNumber": "166078",
 "DwellTime": 2.1e-06,
 "EchoTime": 0.034,
 "EchoTrainLength": 100,
 "EffectiveEchoSpacing": 0.000539986,
 "FlipAngle": 90,
 "ImageOrientationPatientDICOM": [
  1,
  0,
  0,
  0,
  0.985996,
  -0.166769
 ],
 "ImageType": [
  "ORIGINAL",
  "PRIMARY",
  "M",
  "ND",
  "MOSAIC"
 ],
 "InPlanePhaseEncodingDirectionDICOM": "COL",
 "InstitutionAddress": "Street_StreetNo_Bei_Jing_District_CN_ZIP",
 "InstitutionName": "BeiJing_Normal_University",
 "InstitutionalDepartmentName": "Department",
 "MRAcquisitionType": "2D",
 "MagneticFieldStrength": 3,
 "Manufacturer": "Siemens",
 "ManufacturersModelName": "Prisma",
 "Modality": "MR",
 "MultibandAccelerationFactor": 3,
 "PartialFourier": 1,
 "PatientPosition": "HFS",
 "PercentPhaseFOV": 100,
 "PhaseEncodingDirection": "j-",
 "PhaseEncodingSteps": 100,
 "PhaseResolution": 1,
 "PixelBandwidth": 2380,
 "ProcedureStepDescription": "BNU_P2018_64CH_Zhen.ZongLei",
 "ProtocolName": "bold_100x100_s3_2x2x2_static_256",
 "PulseSequenceDetails": "%SiemensSeq%_ep2d_bold",
 "ReceiveCoilActiveElements": "HC1-7;NC1",
 "ReceiveCoilName": "HeadNeck_64",
 "ReconMatrixPE": 100,
 "RepetitionTime": 2,
 "SAR": 0.0757053,
 "ScanOptions": "FS",
 "ScanningSequence": "EP",
 "SequenceName": "_epfid2d1_100",
 "SequenceVariant": "SK",
 "SeriesDescription": "bold_100x100_s3_2x2x2_static_256",
 "SeriesNumber": 13,
 "ShimSetting": [
  -5460,
  -11537,
  -1250,
  483,
  -22,
  -387,
  -91,
  30
 ],
 "SliceThickness": 2,
 "SliceTiming": [
  1.485,
  0,
  0.99,
  0.0825,
  1.0725,
  0.165,
  1.155,
  0.2475,
  1.2375,
  0.33,
  1.32,
  0.4125,
  1.4025,
  0.5775,
  1.5675,
  0.66,
  1.65,
  0.7425,
  1.7325,
  0.825,
  1.815,
  0.9075,
  1.8975,
  0.495,
  1.485,
  0,
  0.99,
  0.0825,
  1.0725,
  0.165,
  1.155,
  0.2475,
  1.2375,
  0.33,
  1.32,
  0.4125,
  1.4025,
  0.5775,
  1.5675,
  0.66,
  1.65,
  0.7425,
  1.7325,
  0.825,
  1.815,
  0.9075,
  1.8975,
  0.495,
  1.485,
  0,
  0.99,
  0.0825,
  1.0725,
  0.165,
  1.155,
  0.2475,
  1.2375,
  0.33,
  1.32,
  0.4125,
  1.4025,
  0.5775,
  1.5675,
  0.66,
  1.65,
  0.7425,
  1.7325,
  0.825,
  1.815,
  0.9075,
  1.8975,
  0.495
 ],
 "SoftwareVersions": "syngo_MR_E11",
 "SpacingBetweenSlices": 2,
 "StationName": "AWP166078",
 "TaskName": "imagenet",
 "TotalReadoutTime": 0.0534586,
 "TxRefAmp": 210.46,
 "dcmmeta_affine": [
  [
   -2.0,
   0.0,
   0.0,
   100.0
  ],
  [
   0.0,
   1.971992015838623,
   -0.3335374891757965,
   -86.56427001953125
  ],
  [
   0.0,
   0.3335374891757965,
   1.971992015838623,
   -85.72920227050781
  ],
  [
   0.0,
   0.0,
   0.0,
   1.0
  ]
 ],
 "dcmmeta_reorient_transform": [
  [
   0.0,
   -1.0,
   0.0,
   99.0
  ],
  [
   1.0,
   0.0,
   0.0,
   0.0
  ],
  [
   0.0,
   0.0,
   1.0,
   0.0
  ],
  [
   0.0,
   0.0,
   0.0,
   1.0
  ]
 ],
 "dcmmeta_shape": [
  100,
  100,
  72,
  256
 ],
 "dcmmeta_slice_dim": 2,
 "dcmmeta_version": 0.6,
 "global": {
  "const": {
   "AcquisitionMatrix": [
    100,
    0,
    0,
    100
   ],
   "AngioFlag": "N",
   "BitsAllocated": 16,
   "BitsStored": 12,
   "BodyPartExamined": "BRAIN",
   "Columns": 900,
   "EchoNumbers": 1,
   "EchoTime": 34.0,
   "EchoTrainLength": 100,
   "FlipAngle": 90.0,
   "HighBit": 11,
   "ImageOrientationPatient": [
    1.0,
    0.0,
    0.0,
    0.0,
    0.98599603751451,
    -0.166768744091
   ],
   "ImagePositionPatient": [
    -900.0,
    -897.45977490381,
    80.706005424105
   ],
   "ImageType": [
    "ORIGINAL",
    "PRIMARY",
    "M",
    "ND",
    "MOSAIC"
   ],
   "ImagedNucleus": "1H",
   "ImagingFrequency": 123.257739,
   "InPlanePhaseEncodingDirection": "COL",
   "MRAcquisitionType": "2D",
   "MagneticFieldStrength": 3.0,
   "Manufacturer": "SIEMENS",
   "ManufacturerModelName": "Prisma",
   "Modality": "MR",
   "NumberOfAverages": 1.0,
   "NumberOfPhaseEncodingSteps": 100,
   "PercentPhaseFieldOfView": 100.0,
   "PercentSampling": 100.0,
   "PerformedProcedureStepStartTime": "130057.019000",
   "PhotometricInterpretation": "MONOCHROME2",
   "PixelBandwidth": 2380.0,
   "PixelRepresentation": 0,
   "PixelSpacing": [
    2.0,
    2.0
   ],
   "ProtocolName": "bold_100x100_s3_2x2x2_static_256",
   "RepetitionTime": 2000.0,
   "Rows": 900,
   "SAR": 0.07570534304364,
   "SamplesPerPixel": 1,
   "ScanOptions": "FS",
   "ScanningSequence": "EP",
   "SequenceName": "*epfid2d1_100",
   "SequenceVariant": "SK",
   "SeriesDescription": "bold_100x100_s3_2x2x2_static_256",
   "SeriesNumber": 13,
   "SeriesTime": "142638.669000",
   "SliceLocation": -70.092437981124,
   "SliceThickness": 2.0,
   "SmallestImagePixelValue": 0,
   "SoftwareVersions": "syngo MR E11",
   "SpacingBetweenSlices": 1.999999988508,
   "SpecificCharacterSet": "ISO_IR 100",
   "StudyID": "1",
   "StudyTime": "130056.942000",
   "TransmitCoilName": "Body",
   "VariableFlipAngleFlag": "N",
   "WindowCenterWidthExplanation": "Algo1",
   "dBdt": 0.0
  },
  "slices": {}
 },
 "time": {
  "samples": {
   "AcquisitionNumber": [
    1,
    2,
    3,
    4,
    5,
    6,
    7,
    8,
    9,
    10,
    11,
    12,
    13,
    14,
    15,
    16,
    17,
    18,
    19,
    20,
    21,
    22,
    23,
    24,
    25,
    26,
    27,
    28,
    29,
    30,
    31,
    32,
    33,
    34,
    35,
    36,
    37,
    38,
    39,
    40,
    41,
    42,
    43,
    44,
    45,
    46,
    47,
    48,
    49,
    50,
    51,
    52,
    53,
    54,
    55,
    56,
    57,
    58,
    59,
    60,
    61,
    62,
    63,
    64,
    65,
    66,
    67,
    68,
    69,
    70,
    71,
    72,
    73,
    74,
    75,
    76,
    77,
    78,
    79,
    80,
    81,
    82,
    83,
    84,
    85,
    86,
    87,
    88,
    89,
    90,
    91,
    92,
    93,
    94,
    95,
    96,
    97,
    98,
    99,
    100,
    101,
    102,
    103,
    104,
    105,
    106,
    107,
    108,
    109,
    110,
    111,
    112,
    113,
    114,
    115,
    116,
    117,
    118,
    119,
    120,
    121,
    122,
    123,
    124,
    125,
    126,
    127,
    128,
    129,
    130,
    131,
    132,
    133,
    134,
    135,
    136,
    137,
    138,
    139,
    140,
    141,
    142,
    143,
    144,
    145,
    146,
    147,
    148,
    149,
    150,
    151,
    152,
    153,
    154,
    155,
    156,
    157,
    158,
    159,
    160,
    161,
    162,
    163,
    164,
    165,
    166,
    167,
    168,
    169,
    170,
    171,
    172,
    173,
    174,
    175,
    176,
    177,
    178,
    179,
    180,
    181,
    182,
    183,
    184,
    185,
    186,
    187,
    188,
    189,
    190,
    191,
    192,
    193,
    194,
    195,
    196,
    197,
    198,
    199,
    200,
    201,
    202,
    203,
    204,
    205,
    206,
    207,
    208,
    209,
    210,
    211,
    212,
    213,
    214,
    215,
    216,
    217,
    218,
    219,
    220,
    221,
    222,
    223,
    224,
    225,
    226,
    227,
    228,
    229,
    230,
    231,
    232,
    233,
    234,
    235,
    236,
    237,
    238,
    239,
    240,
    241,
    242,
    243,
    244,
    245,
    246,
    247,
    248,
    249,
    250,
    251,
    252,
    253,
    254,
    255,
    256
   ],
   "AcquisitionTime": [
    "142635.797500",
    "142637.797500",
    "142639.797500",
    "142641.797500",
    "142643.797500",
    "142645.797500",
    "142647.797500",
    "142649.797500",
    "142651.797500",
    "142653.797500",
    "142655.797500",
    "142657.797500",
    "142659.797500",
    "142701.797500",
    "142703.797500",
    "142705.797500",
    "142707.797500",
    "142709.797500",
    "142711.797500",
    "142713.797500",
    "142715.797500",
    "142717.797500",
    "142719.797500",
    "142721.797500",
    "142723.797500",
    "142725.797500",
    "142727.797500",
    "142729.797500",
    "142731.797500",
    "142733.797500",
    "142735.797500",
    "142737.797500",
    "142739.797500",
    "142741.797500",
    "142743.797500",
    "142745.797500",
    "142747.797500",
    "142749.797500",
    "142751.797500",
    "142753.797500",
    "142755.797500",
    "142757.797500",
    "142759.797500",
    "142801.797500",
    "142803.797500",
    "142805.797500",
    "142807.797500",
    "142809.797500",
    "142811.797500",
    "142813.797500",
    "142815.797500",
    "142817.797500",
    "142819.797500",
    "142821.797500",
    "142823.797500",
    "142825.797500",
    "142827.797500",
    "142829.797500",
    "142831.797500",
    "142833.797500",
    "142835.797500",
    "142837.797500",
    "142839.797500",
    "142841.797500",
    "142843.797500",
    "142845.797500",
    "142847.797500",
    "142849.797500",
    "142851.797500",
    "142853.797500",
    "142855.797500",
    "142857.797500",
    "142859.797500",
    "142901.797500",
    "142903.797500",
    "142905.797500",
    "142907.797500",
    "142909.797500",
    "142911.797500",
    "142913.797500",
    "142915.797500",
    "142917.797500",
    "142919.797500",
    "142921.797500",
    "142923.797500",
    "142925.797500",
    "142927.797500",
    "142929.797500",
    "142931.797500",
    "142933.797500",
    "142935.797500",
    "142937.797500",
    "142939.797500",
    "142941.797500",
    "142943.797500",
    "142945.797500",
    "142947.797500",
    "142949.797500",
    "142951.797500",
    "142953.797500",
    "142955.797500",
    "142957.797500",
    "142959.797500",
    "143001.797500",
    "143003.797500",
    "143005.797500",
    "143007.797500",
    "143009.797500",
    "143011.797500",
    "143013.797500",
    "143015.797500",
    "143017.797500",
    "143019.797500",
    "143021.797500",
    "143023.797500",
    "143025.797500",
    "143027.797500",
    "143029.797500",
    "143031.797500",
    "143033.797500",
    "143035.797500",
    "143037.797500",
    "143039.797500",
    "143041.797500",
    "143043.797500",
    "143045.797500",
    "143047.797500",
    "143049.797500",
    "143051.797500",
    "143053.797500",
    "143055.797500",
    "143057.797500",
    "143059.797500",
    "143101.797500",
    "143103.797500",
    "143105.797500",
    "143107.797500",
    "143109.797500",
    "143111.797500",
    "143113.797500",
    "143115.797500",
    "143117.797500",
    "143119.797500",
    "143121.797500",
    "143123.797500",
    "143125.797500",
    "143127.797500",
    "143129.797500",
    "143131.797500",
    "143133.797500",
    "143135.797500",
    "143137.797500",
    "143139.797500",
    "143141.797500",
    "143143.797500",
    "143145.797500",
    "143147.797500",
    "143149.797500",
    "143151.797500",
    "143153.797500",
    "143155.797500",
    "143157.797500",
    "143159.797500",
    "143201.797500",
    "143203.797500",
    "143205.797500",
    "143207.797500",
    "143209.797500",
    "143211.797500",
    "143213.797500",
    "143215.797500",
    "143217.797500",
    "143219.797500",
    "143221.797500",
    "143223.797500",
    "143225.797500",
    "143227.797500",
    "143229.797500",
    "143231.797500",
    "143233.797500",
    "143235.797500",
    "143237.797500",
    "143239.797500",
    "143241.797500",
    "143243.797500",
    "143245.797500",
    "143247.797500",
    "143249.797500",
    "143251.797500",
    "143253.797500",
    "143255.797500",
    "143257.797500",
    "143259.797500",
    "143301.797500",
    "143303.797500",
    "143305.797500",
    "143307.797500",
    "143309.797500",
    "143311.797500",
    "143313.797500",
    "143315.797500",
    "143317.797500",
    "143319.797500",
    "143321.797500",
    "143323.797500",
    "143325.797500",
    "143327.797500",
    "143329.797500",
    "143331.797500",
    "143333.797500",
    "143335.797500",
    "143337.797500",
    "143339.797500",
    "143341.797500",
    "143343.797500",
    "143345.797500",
    "143347.797500",
    "143349.797500",
    "143351.797500",
    "143353.797500",
    "143355.797500",
    "143357.797500",
    "143359.797500",
    "143401.797500",
    "143403.797500",
    "143405.797500",
    "143407.797500",
    "143409.797500",
    "143411.797500",
    "143413.797500",
    "143415.797500",
    "143417.797500",
    "143419.797500",
    "143421.797500",
    "143423.797500",
    "143425.797500",
    "143427.797500",
    "143429.797500",
    "143431.797500",
    "143433.797500",
    "143435.797500",
    "143437.797500",
    "143439.797500",
    "143441.797500",
    "143443.797500",
    "143445.797500",
    "143447.797500",
    "143449.797500",
    "143451.797500",
    "143453.797500",
    "143455.797500",
    "143457.797500",
    "143459.797500",
    "143501.797500",
    "143503.797500",
    "143505.797500"
   ],
   "ContentTime": [
    "142638.673000",
    "142640.169000",
    "142642.169000",
    "142644.170000",
    "142646.169000",
    "142648.170000",
    "142650.170000",
    "142652.169000",
    "142654.169000",
    "142656.169000",
    "142658.168000",
    "142700.170000",
    "142702.169000",
    "142704.169000",
    "142706.169000",
    "142708.169000",
    "142710.169000",
    "142712.169000",
    "142714.168000",
    "142716.169000",
    "142718.170000",
    "142720.170000",
    "142722.169000",
    "142724.170000",
    "142726.170000",
    "142728.168000",
    "142730.168000",
    "142732.168000",
    "142734.170000",
    "142736.170000",
    "142738.169000",
    "142740.169000",
    "142742.169000",
    "142744.169000",
    "142746.169000",
    "142748.169000",
    "142750.168000",
    "142752.170000",
    "142754.169000",
    "142756.169000",
    "142758.170000",
    "142800.170000",
    "142802.170000",
    "142804.169000",
    "142806.168000",
    "142808.169000",
    "142810.169000",
    "142812.170000",
    "142814.169000",
    "142816.169000",
    "142818.170000",
    "142820.169000",
    "142822.169000",
    "142824.168000",
    "142826.168000",
    "142828.169000",
    "142830.169000",
    "142832.169000",
    "142834.170000",
    "142836.169000",
    "142838.169000",
    "142840.169000",
    "142842.169000",
    "142844.169000",
    "142846.170000",
    "142848.170000",
    "142850.169000",
    "142852.170000",
    "142854.170000",
    "142856.169000",
    "142858.168000",
    "142900.168000",
    "142902.169000",
    "142904.169000",
    "142906.170000",
    "142908.170000",
    "142910.169000",
    "142912.170000",
    "142914.168000",
    "142916.168000",
    "142918.168000",
    "142920.169000",
    "142922.170000",
    "142924.170000",
    "142926.169000",
    "142928.169000",
    "142930.168000",
    "142932.168000",
    "142934.168000",
    "142936.168000",
    "142938.169000",
    "142940.169000",
    "142942.169000",
    "142944.169000",
    "142946.169000",
    "142948.168000",
    "142950.168000",
    "142952.168000",
    "142954.170000",
    "142956.169000",
    "142958.169000",
    "143000.169000",
    "143002.170000",
    "143004.170000",
    "143006.169000",
    "143008.168000",
    "143010.169000",
    "143012.169000",
    "143014.169000",
    "143016.169000",
    "143018.170000",
    "143020.169000",
    "143022.170000",
    "143024.169000",
    "143026.169000",
    "143028.169000",
    "143030.169000",
    "143032.169000",
    "143034.169000",
    "143036.169000",
    "143038.190000",
    "143040.179000",
    "143042.168000",
    "143044.169000",
    "143046.169000",
    "143048.170000",
    "143050.170000",
    "143052.170000",
    "143054.170000",
    "143056.169000",
    "143058.169000",
    "143100.168000",
    "143102.169000",
    "143104.169000",
    "143106.170000",
    "143108.170000",
    "143110.169000",
    "143112.170000",
    "143114.169000",
    "143116.169000",
    "143118.169000",
    "143120.168000",
    "143122.170000",
    "143124.169000",
    "143126.170000",
    "143128.169000",
    "143130.170000",
    "143132.170000",
    "143134.169000",
    "143136.169000",
    "143138.169000",
    "143140.169000",
    "143142.170000",
    "143144.170000",
    "143146.170000",
    "143148.170000",
    "143150.169000",
    "143152.169000",
    "143154.169000",
    "143156.169000",
    "143158.169000",
    "143200.170000",
    "143202.170000",
    "143204.170000",
    "143206.170000",
    "143208.168000",
    "143210.168000",
    "143212.168000",
    "143214.170000",
    "143216.170000",
    "143218.170000",
    "143220.170000",
    "143222.170000",
    "143224.169000",
    "143226.169000",
    "143228.169000",
    "143230.168000",
    "143232.170000",
    "143234.169000",
    "143236.170000",
    "143238.169000",
    "143240.170000",
    "143242.169000",
    "143244.168000",
    "143246.168000",
    "143248.169000",
    "143250.169000",
    "143252.170000",
    "143254.170000",
    "143256.171000",
    "143258.170000",
    "143300.169000",
    "143302.169000",
    "143304.169000",
    "143306.169000",
    "143308.169000",
    "143310.169000",
    "143312.170000",
    "143314.170000",
    "143316.169000",
    "143318.168000",
    "143320.169000",
    "143322.168000",
    "143324.170000",
    "143326.170000",
    "143328.171000",
    "143330.169000",
    "143332.170000",
    "143334.170000",
    "143336.168000",
    "143338.169000",
    "143340.169000",
    "143342.169000",
    "143344.170000",
    "143346.170000",
    "143348.170000",
    "143350.170000",
    "143352.170000",
    "143354.168000",
    "143356.169000",
    "143358.169000",
    "143400.170000",
    "143402.169000",
    "143404.169000",
    "143406.170000",
    "143408.170000",
    "143410.168000",
    "143412.169000",
    "143414.168000",
    "143416.169000",
    "143418.170000",
    "143420.170000",
    "143422.169000",
    "143424.169000",
    "143426.170000",
    "143428.168000",
    "143430.168000",
    "143432.169000",
    "143434.170000",
    "143436.169000",
    "143438.169000",
    "143440.170000",
    "143442.169000",
    "143444.169000",
    "143446.169000",
    "143448.168000",
    "143450.169000",
    "143452.169000",
    "143454.170000",
    "143456.170000",
    "143458.169000",
    "143500.170000",
    "143502.168000",
    "143504.169000",
    "143506.168000",
    "143507.925000"
   ],
   "InstanceCreationTime": [
    "142638.673000",
    "142640.169000",
    "142642.169000",
    "142644.170000",
    "142646.169000",
    "142648.170000",
    "142650.170000",
    "142652.169000",
    "142654.169000",
    "142656.169000",
    "142658.168000",
    "142700.170000",
    "142702.169000",
    "142704.169000",
    "142706.169000",
    "142708.169000",
    "142710.169000",
    "142712.169000",
    "142714.168000",
    "142716.169000",
    "142718.170000",
    "142720.170000",
    "142722.169000",
    "142724.170000",
    "142726.170000",
    "142728.168000",
    "142730.168000",
    "142732.168000",
    "142734.170000",
    "142736.170000",
    "142738.169000",
    "142740.169000",
    "142742.169000",
    "142744.169000",
    "142746.169000",
    "142748.169000",
    "142750.168000",
    "142752.170000",
    "142754.169000",
    "142756.169000",
    "142758.170000",
    "142800.170000",
    "142802.170000",
    "142804.169000",
    "142806.168000",
    "142808.169000",
    "142810.169000",
    "142812.170000",
    "142814.169000",
    "142816.169000",
    "142818.170000",
    "142820.169000",
    "142822.169000",
    "142824.168000",
    "142826.168000",
    "142828.169000",
    "142830.169000",
    "142832.169000",
    "142834.170000",
    "142836.169000",
    "142838.169000",
    "142840.169000",
    "142842.169000",
    "142844.169000",
    "142846.170000",
    "142848.170000",
    "142850.169000",
    "142852.170000",
    "142854.170000",
    "142856.169000",
    "142858.168000",
    "142900.168000",
    "142902.169000",
    "142904.169000",
    "142906.170000",
    "142908.170000",
    "142910.169000",
    "142912.170000",
    "142914.168000",
    "142916.168000",
    "142918.168000",
    "142920.169000",
    "142922.170000",
    "142924.170000",
    "142926.169000",
    "142928.169000",
    "142930.168000",
    "142932.168000",
    "142934.168000",
    "142936.168000",
    "142938.169000",
    "142940.169000",
    "142942.169000",
    "142944.169000",
    "142946.169000",
    "142948.168000",
    "142950.168000",
    "142952.168000",
    "142954.170000",
    "142956.169000",
    "142958.169000",
    "143000.169000",
    "143002.170000",
    "143004.170000",
    "143006.169000",
    "143008.168000",
    "143010.169000",
    "143012.169000",
    "143014.169000",
    "143016.169000",
    "143018.170000",
    "143020.169000",
    "143022.170000",
    "143024.169000",
    "143026.169000",
    "143028.169000",
    "143030.169000",
    "143032.169000",
    "143034.169000",
    "143036.169000",
    "143038.190000",
    "143040.179000",
    "143042.168000",
    "143044.169000",
    "143046.169000",
    "143048.170000",
    "143050.170000",
    "143052.170000",
    "143054.170000",
    "143056.169000",
    "143058.169000",
    "143100.168000",
    "143102.169000",
    "143104.169000",
    "143106.170000",
    "143108.170000",
    "143110.169000",
    "143112.170000",
    "143114.169000",
    "143116.169000",
    "143118.169000",
    "143120.168000",
    "143122.170000",
    "143124.169000",
    "143126.170000",
    "143128.169000",
    "143130.170000",
    "143132.170000",
    "143134.169000",
    "143136.169000",
    "143138.169000",
    "143140.169000",
    "143142.170000",
    "143144.170000",
    "143146.170000",
    "143148.170000",
    "143150.169000",
    "143152.169000",
    "143154.169000",
    "143156.169000",
    "143158.169000",
    "143200.170000",
    "143202.170000",
    "143204.170000",
    "143206.170000",
    "143208.168000",
    "143210.168000",
    "143212.168000",
    "143214.170000",
    "143216.170000",
    "143218.170000",
    "143220.170000",
    "143222.170000",
    "143224.169000",
    "143226.169000",
    "143228.169000",
    "143230.168000",
    "143232.170000",
    "143234.169000",
    "143236.170000",
    "143238.169000",
    "143240.170000",
    "143242.169000",
    "143244.168000",
    "143246.168000",
    "143248.169000",
    "143250.169000",
    "143252.170000",
    "143254.170000",
    "143256.171000",
    "143258.170000",
    "143300.169000",
    "143302.169000",
    "143304.169000",
    "143306.169000",
    "143308.169000",
    "143310.169000",
    "143312.170000",
    "143314.170000",
    "143316.169000",
    "143318.168000",
    "143320.169000",
    "143322.168000",
    "143324.170000",
    "143326.170000",
    "143328.171000",
    "143330.169000",
    "143332.170000",
    "143334.170000",
    "143336.168000",
    "143338.169000",
    "143340.169000",
    "143342.169000",
    "143344.170000",
    "143346.170000",
    "143348.170000",
    "143350.170000",
    "143352.170000",
    "143354.168000",
    "143356.169000",
    "143358.169000",
    "143400.170000",
    "143402.169000",
    "143404.169000",
    "143406.170000",
    "143408.170000",
    "143410.168000",
    "143412.169000",
    "143414.168000",
    "143416.169000",
    "143418.170000",
    "143420.170000",
    "143422.169000",
    "143424.169000",
    "143426.170000",
    "143428.168000",
    "143430.168000",
    "143432.169000",
    "143434.170000",
    "143436.169000",
    "143438.169000",
    "143440.170000",
    "143442.169000",
    "143444.169000",
    "143446.169000",
    "143448.168000",
    "143450.169000",
    "143452.169000",
    "143454.170000",
    "143456.170000",
    "143458.169000",
    "143500.170000",
    "143502.168000",
    "143504.169000",
    "143506.168000",
    "143507.925000"
   ],
   "InstanceNumber": [
    1,
    2,
    3,
    4,
    5,
    6,
    7,
    8,
    9,
    10,
    11,
    12,
    13,
    14,
    15,
    16,
    17,
    18,
    19,
    20,
    21,
    22,
    23,
    24,
    25,
    26,
    27,
    28,
    29,
    30,
    31,
    32,
    33,
    34,
    35,
    36,
    37,
    38,
    39,
    40,
    41,
    42,
    43,
    44,
    45,
    46,
    47,
    48,
    49,
    50,
    51,
    52,
    53,
    54,
    55,
    56,
    57,
    58,
    59,
    60,
    61,
    62,
    63,
    64,
    65,
    66,
    67,
    68,
    69,
    70,
    71,
    72,
    73,
    74,
    75,
    76,
    77,
    78,
    79,
    80,
    81,
    82,
    83,
    84,
    85,
    86,
    87,
    88,
    89,
    90,
    91,
    92,
    93,
    94,
    95,
    96,
    97,
    98,
    99,
    100,
    101,
    102,
    103,
    104,
    105,
    106,
    107,
    108,
    109,
    110,
    111,
    112,
    113,
    114,
    115,
    116,
    117,
    118,
    119,
    120,
    121,
    122,
    123,
    124,
    125,
    126,
    127,
    128,
    129,
    130,
    131,
    132,
    133,
    134,
    135,
    136,
    137,
    138,
    139,
    140,
    141,
    142,
    143,
    144,
    145,
    146,
    147,
    148,
    149,
    150,
    151,
    152,
    153,
    154,
    155,
    156,
    157,
    158,
    159,
    160,
    161,
    162,
    163,
    164,
    165,
    166,
    167,
    168,
    169,
    170,
    171,
    172,
    173,
    174,
    175,
    176,
    177,
    178,
    179,
    180,
    181,
    182,
    183,
    184,
    185,
    186,
    187,
    188,
    189,
    190,
    191,
    192,
    193,
    194,
    195,
    196,
    197,
    198,
    199,
    200,
    201,
    202,
    203,
    204,
    205,
    206,
    207,
    208,
    209,
    210,
    211,
    212,
    213,
    214,
    215,
    216,
    217,
    218,
    219,
    220,
    221,
    222,
    223,
    224,
    225,
    226,
    227,
    228,
    229,
    230,
    231,
    232,
    233,
    234,
    235,
    236,
    237,
    238,
    239,
    240,
    241,
    242,
    243,
    244,
    245,
    246,
    247,
    248,
    249,
    250,
    251,
    252,
    253,
    254,
    255,
    256
   ],
   "LargestImagePixelValue": [
    2639,
    2581,
    2574,
    2537,
    2641,
    2562,
    2570,
    2533,
    2562,
    2553,
    2571,
    2620,
    2559,
    2553,
    2595,
    2559,
    2607,
    2578,
    2614,
    2557,
    2589,
    2562,
    2595,
    2585,
    2556,
    2573,
    2597,
    2564,
    2616,
    2553,
    2627,
    2597,
    2535,
    2537,
    2593,
    2529,
    2561,
    2575,
    2602,
    2595,
    2578,
    2601,
    2550,
    2582,
    2542,
    2567,
    2665,
    2520,
    2540,
    2556,
    2559,
    2566,
    2555,
    2564,
    2588,
    2546,
    2543,
    2560,
    2550,
    2559,
    2593,
    2554,
    2573,
    2557,
    2575,
    2533,
    2552,
    2589,
    2569,
    2534,
    2557,
    2567,
    2555,
    2565,
    2559,
    2603,
    2571,
    2572,
    2489,
    2482,
    2465,
    2439,
    2484,
    2496,
    2465,
    2473,
    2492,
    2444,
    2464,
    2478,
    2478,
    2500,
    2484,
    2483,
    2504,
    2489,
    2481,
    2480,
    2446,
    2449,
    2457,
    2435,
    2471,
    2463,
    2504,
    2451,
    2498,
    2460,
    2447,
    2478,
    2472,
    2483,
    2446,
    2481,
    2471,
    2476,
    2507,
    2525,
    2457,
    2465,
    2459,
    2460,
    2493,
    2472,
    2478,
    2488,
    2501,
    2500,
    2486,
    2497,
    2476,
    2467,
    2449,
    2488,
    2440,
    2442,
    2479,
    2466,
    2499,
    2472,
    2493,
    2561,
    2509,
    2491,
    2542,
    2507,
    2461,
    2518,
    2455,
    2509,
    2517,
    2491,
    2543,
    2543,
    2488,
    2531,
    2460,
    2534,
    2515,
    2506,
    2480,
    2515,
    2528,
    2497,
    2527,
    2471,
    2481,
    2467,
    2463,
    2489,
    2487,
    2495,
    2466,
    2492,
    2477,
    2479,
    2473,
    2493,
    2478,
    2497,
    2486,
    2587,
    2487,
    2552,
    2559,
    2474,
    2508,
    2528,
    2492,
    2498,
    2485,
    2586,
    2527,
    2505,
    2491,
    2503,
    2472,
    2532,
    2478,
    2501,
    2519,
    2496,
    2485,
    2509,
    2493,
    2507,
    2484,
    2498,
    2491,
    2477,
    2504,
    2493,
    2512,
    2529,
    2486,
    2436,
    2499,
    2509,
    2481,
    2502,
    2495,
    2508,
    2498,
    2511,
    2511,
    2481,
    2500,
    2512,
    2492,
    2488,
    2470,
    2483,
    2466,
    2468,
    2469,
    2477,
    2522,
    2462,
    2502,
    2502,
    2495,
    2440,
    2622,
    2555,
    2619,
    2547,
    2566,
    2555,
    2567,
    2575,
    2557,
    2555,
    2543,
    2554,
    2563,
    2608
   ],
   "WindowCenter": [
    719.0,
    717.0,
    717.0,
    717.0,
    716.0,
    715.0,
    716.0,
    714.0,
    714.0,
    715.0,
    715.0,
    717.0,
    716.0,
    716.0,
    716.0,
    715.0,
    717.0,
    717.0,
    717.0,
    715.0,
    716.0,
    717.0,
    718.0,
    717.0,
    717.0,
    717.0,
    718.0,
    717.0,
    717.0,
    717.0,
    719.0,
    718.0,
    715.0,
    714.0,
    716.0,
    713.0,
    714.0,
    715.0,
    717.0,
    718.0,
    718.0,
    717.0,
    717.0,
    717.0,
    717.0,
    719.0,
    719.0,
    716.0,
    715.0,
    714.0,
    714.0,
    714.0,
    715.0,
    716.0,
    717.0,
    716.0,
    716.0,
    716.0,
    716.0,
    717.0,
    718.0,
    717.0,
    717.0,
    718.0,
    717.0,
    718.0,
    717.0,
    717.0,
    716.0,
    716.0,
    718.0,
    718.0,
    717.0,
    716.0,
    718.0,
    720.0,
    719.0,
    718.0,
    716.0,
    716.0,
    715.0,
    716.0,
    716.0,
    715.0,
    714.0,
    715.0,
    715.0,
    715.0,
    715.0,
    715.0,
    716.0,
    716.0,
    715.0,
    715.0,
    716.0,
    716.0,
    717.0,
    716.0,
    715.0,
    714.0,
    715.0,
    714.0,
    715.0,
    715.0,
    715.0,
    716.0,
    717.0,
    716.0,
    715.0,
    714.0,
    715.0,
    715.0,
    715.0,
    715.0,
    715.0,
    716.0,
    716.0,
    716.0,
    715.0,
    715.0,
    715.0,
    715.0,
    716.0,
    715.0,
    715.0,
    715.0,
    716.0,
