{
 "AcquisitionMatrixPE": 100,
 "AcquisitionNumber": 1,
 "AcquisitionTime": "14:47:38.207500",
 "BandwidthPerPixelPhaseEncode": 18.519,
 "BaseResolution": 100,
 "BodyPartExamined": "BRAIN",
 "ConsistencyInfo": "N4_VE11C_LATEST_20160120",
 "ConversionSoftware": "dcm2niix",
 "ConversionSoftwareVersion": "v1.0.20180622 GCC4.9.2",
 "DerivedVendorReportedEchoSpacing": 0.000539986,
 "DeviceSerialNumber": "166078",
 "DwellTime": 2.1e-06,
 "EchoTime": 0.034,
 "EchoTrainLength": 100,
 "EffectiveEchoSpacing": 0.000539986,
 "FlipAngle": 90,
 "ImageOrientationPatientDICOM": [
  1,
  0,
  0,
  0,
  0.985996,
  -0.166769
 ],
 "ImageType": [
  "ORIGINAL",
  "PRIMARY",
  "M",
  "ND",
  "MOSAIC"
 ],
 "InPlanePhaseEncodingDirectionDICOM": "COL",
 "InstitutionAddress": "Street_StreetNo_Bei_Jing_District_CN_ZIP",
 "InstitutionName": "BeiJing_Normal_University",
 "InstitutionalDepartmentName": "Department",
 "MRAcquisitionType": "2D",
 "MagneticFieldStrength": 3,
 "Manufacturer": "Siemens",
 "ManufacturersModelName": "Prisma",
 "Modality": "MR",
 "MultibandAccelerationFactor": 3,
 "PartialFourier": 1,
 "PatientPosition": "HFS",
 "PercentPhaseFOV": 100,
 "PhaseEncodingDirection": "j-",
 "PhaseEncodingSteps": 100,
 "PhaseResolution": 1,
 "PixelBandwidth": 2380,
 "ProcedureStepDescription": "BNU_P2018_64CH_Zhen.ZongLei",
 "ProtocolName": "bold_100x100_s3_2x2x2_static_256",
 "PulseSequenceDetails": "%SiemensSeq%_ep2d_bold",
 "ReceiveCoilActiveElements": "HC1-7;NC1",
 "ReceiveCoilName": "HeadNeck_64",
 "ReconMatrixPE": 100,
 "RepetitionTime": 2,
 "SAR": 0.0757053,
 "ScanOptions": "FS",
 "ScanningSequence": "EP",
 "SequenceName": "_epfid2d1_100",
 "SequenceVariant": "SK",
 "SeriesDescription": "bold_100x100_s3_2x2x2_static_256",
 "SeriesNumber": 16,
 "ShimSetting": [
  -5460,
  -11537,
  -1250,
  483,
  -22,
  -387,
  -91,
  30
 ],
 "SliceThickness": 2,
 "SliceTiming": [
  1.485,
  0,
  0.99,
  0.0825,
  1.0725,
  0.165,
  1.155,
  0.2475,
  1.2375,
  0.33,
  1.32,
  0.4125,
  1.4025,
  0.5775,
  1.5675,
  0.66,
  1.65,
  0.7425,
  1.7325,
  0.825,
  1.815,
  0.9075,
  1.8975,
  0.495,
  1.485,
  0,
  0.99,
  0.0825,
  1.0725,
  0.165,
  1.155,
  0.2475,
  1.2375,
  0.33,
  1.32,
  0.4125,
  1.4025,
  0.5775,
  1.5675,
  0.66,
  1.65,
  0.7425,
  1.7325,
  0.825,
  1.815,
  0.9075,
  1.8975,
  0.495,
  1.485,
  0,
  0.99,
  0.0825,
  1.0725,
  0.165,
  1.155,
  0.2475,
  1.2375,
  0.33,
  1.32,
  0.4125,
  1.4025,
  0.5775,
  1.5675,
  0.66,
  1.65,
  0.7425,
  1.7325,
  0.825,
  1.815,
  0.9075,
  1.8975,
  0.495
 ],
 "SoftwareVersions": "syngo_MR_E11",
 "SpacingBetweenSlices": 2,
 "StationName": "AWP166078",
 "TaskName": "imagenet",
 "TotalReadoutTime": 0.0534586,
 "TxRefAmp": 210.46,
 "dcmmeta_affine": [
  [
   -2.0,
   0.0,
   0.0,
   100.0
  ],
  [
   0.0,
   1.971992015838623,
   -0.3335374891757965,
   -86.56427001953125
  ],
  [
   0.0,
   0.3335374891757965,
   1.971992015838623,
   -85.72920227050781
  ],
  [
   0.0,
   0.0,
   0.0,
   1.0
  ]
 ],
 "dcmmeta_reorient_transform": [
  [
   0.0,
   -1.0,
   0.0,
   99.0
  ],
  [
   1.0,
   0.0,
   0.0,
   0.0
  ],
  [
   0.0,
   0.0,
   1.0,
   0.0
  ],
  [
   0.0,
   0.0,
   0.0,
   1.0
  ]
 ],
 "dcmmeta_shape": [
  100,
  100,
  72,
  256
 ],
 "dcmmeta_slice_dim": 2,
 "dcmmeta_version": 0.6,
 "global": {
  "const": {
   "AcquisitionMatrix": [
    100,
    0,
    0,
    100
   ],
   "AngioFlag": "N",
   "BitsAllocated": 16,
   "BitsStored": 12,
   "BodyPartExamined": "BRAIN",
   "Columns": 900,
   "EchoNumbers": 1,
   "EchoTime": 34.0,
   "EchoTrainLength": 100,
   "FlipAngle": 90.0,
   "HighBit": 11,
   "ImageOrientationPatient": [
    1.0,
    0.0,
    0.0,
    0.0,
    0.98599603751451,
    -0.166768744091
   ],
   "ImagePositionPatient": [
    -900.0,
    -897.45977490381,
    80.706005424105
   ],
   "ImageType": [
    "ORIGINAL",
    "PRIMARY",
    "M",
    "ND",
    "MOSAIC"
   ],
   "ImagedNucleus": "1H",
   "ImagingFrequency": 123.25773,
   "InPlanePhaseEncodingDirection": "COL",
   "MRAcquisitionType": "2D",
   "MagneticFieldStrength": 3.0,
   "Manufacturer": "SIEMENS",
   "ManufacturerModelName": "Prisma",
   "Modality": "MR",
   "NumberOfAverages": 1.0,
   "NumberOfPhaseEncodingSteps": 100,
   "PercentPhaseFieldOfView": 100.0,
   "PercentSampling": 100.0,
   "PerformedProcedureStepStartTime": "130057.019000",
   "PhotometricInterpretation": "MONOCHROME2",
   "PixelBandwidth": 2380.0,
   "PixelRepresentation": 0,
   "PixelSpacing": [
    2.0,
    2.0
   ],
   "ProtocolName": "bold_100x100_s3_2x2x2_static_256",
   "RepetitionTime": 2000.0,
   "Rows": 900,
   "SAR": 0.07570534304364,
   "SamplesPerPixel": 1,
   "ScanOptions": "FS",
   "ScanningSequence": "EP",
   "SequenceName": "*epfid2d1_100",
   "SequenceVariant": "SK",
   "SeriesDescription": "bold_100x100_s3_2x2x2_static_256",
   "SeriesNumber": 16,
   "SeriesTime": "144741.205000",
   "SliceLocation": -70.092437981124,
   "SliceThickness": 2.0,
   "SmallestImagePixelValue": 0,
   "SoftwareVersions": "syngo MR E11",
   "SpacingBetweenSlices": 1.999999988508,
   "SpecificCharacterSet": "ISO_IR 100",
   "StudyID": "1",
   "StudyTime": "130056.942000",
   "TransmitCoilName": "Body",
   "VariableFlipAngleFlag": "N",
   "WindowCenterWidthExplanation": "Algo1",
   "dBdt": 0.0
  },
  "slices": {}
 },
 "time": {
  "samples": {
   "AcquisitionNumber": [
    1,
    2,
    3,
    4,
    5,
    6,
    7,
    8,
    9,
    10,
    11,
    12,
    13,
    14,
    15,
    16,
    17,
    18,
    19,
    20,
    21,
    22,
    23,
    24,
    25,
    26,
    27,
    28,
    29,
    30,
    31,
    32,
    33,
    34,
    35,
    36,
    37,
    38,
    39,
    40,
    41,
    42,
    43,
    44,
    45,
    46,
    47,
    48,
    49,
    50,
    51,
    52,
    53,
    54,
    55,
    56,
    57,
    58,
    59,
    60,
    61,
    62,
    63,
    64,
    65,
    66,
    67,
    68,
    69,
    70,
    71,
    72,
    73,
    74,
    75,
    76,
    77,
    78,
    79,
    80,
    81,
    82,
    83,
    84,
    85,
    86,
    87,
    88,
    89,
    90,
    91,
    92,
    93,
    94,
    95,
    96,
    97,
    98,
    99,
    100,
    101,
    102,
    103,
    104,
    105,
    106,
    107,
    108,
    109,
    110,
    111,
    112,
    113,
    114,
    115,
    116,
    117,
    118,
    119,
    120,
    121,
    122,
    123,
    124,
    125,
    126,
    127,
    128,
    129,
    130,
    131,
    132,
    133,
    134,
    135,
    136,
    137,
    138,
    139,
    140,
    141,
    142,
    143,
    144,
    145,
    146,
    147,
    148,
    149,
    150,
    151,
    152,
    153,
    154,
    155,
    156,
    157,
    158,
    159,
    160,
    161,
    162,
    163,
    164,
    165,
    166,
    167,
    168,
    169,
    170,
    171,
    172,
    173,
    174,
    175,
    176,
    177,
    178,
    179,
    180,
    181,
    182,
    183,
    184,
    185,
    186,
    187,
    188,
    189,
    190,
    191,
    192,
    193,
    194,
    195,
    196,
    197,
    198,
    199,
    200,
    201,
    202,
    203,
    204,
    205,
    206,
    207,
    208,
    209,
    210,
    211,
    212,
    213,
    214,
    215,
    216,
    217,
    218,
    219,
    220,
    221,
    222,
    223,
    224,
    225,
    226,
    227,
    228,
    229,
    230,
    231,
    232,
    233,
    234,
    235,
    236,
    237,
    238,
    239,
    240,
    241,
    242,
    243,
    244,
    245,
    246,
    247,
    248,
    249,
    250,
    251,
    252,
    253,
    254,
    255,
    256
   ],
   "AcquisitionTime": [
    "144738.207500",
    "144740.207500",
    "144742.207500",
    "144744.207500",
    "144746.207500",
    "144748.207500",
    "144750.207500",
    "144752.207500",
    "144754.207500",
    "144756.207500",
    "144758.207500",
    "144800.207500",
    "144802.207500",
    "144804.207500",
    "144806.207500",
    "144808.207500",
    "144810.207500",
    "144812.207500",
    "144814.207500",
    "144816.207500",
    "144818.207500",
    "144820.207500",
    "144822.207500",
    "144824.207500",
    "144826.207500",
    "144828.207500",
    "144830.207500",
    "144832.207500",
    "144834.207500",
    "144836.207500",
    "144838.207500",
    "144840.207500",
    "144842.207500",
    "144844.207500",
    "144846.207500",
    "144848.207500",
    "144850.207500",
    "144852.207500",
    "144854.207500",
    "144856.207500",
    "144858.207500",
    "144900.207500",
    "144902.207500",
    "144904.207500",
    "144906.207500",
    "144908.207500",
    "144910.207500",
    "144912.207500",
    "144914.207500",
    "144916.207500",
    "144918.207500",
    "144920.207500",
    "144922.207500",
    "144924.207500",
    "144926.207500",
    "144928.207500",
    "144930.207500",
    "144932.207500",
    "144934.207500",
    "144936.207500",
    "144938.207500",
    "144940.207500",
    "144942.207500",
    "144944.207500",
    "144946.207500",
    "144948.207500",
    "144950.207500",
    "144952.207500",
    "144954.207500",
    "144956.207500",
    "144958.207500",
    "145000.207500",
    "145002.207500",
    "145004.207500",
    "145006.207500",
    "145008.207500",
    "145010.207500",
    "145012.207500",
    "145014.207500",
    "145016.207500",
    "145018.207500",
    "145020.207500",
    "145022.207500",
    "145024.207500",
    "145026.207500",
    "145028.207500",
    "145030.207500",
    "145032.207500",
    "145034.207500",
    "145036.207500",
    "145038.207500",
    "145040.207500",
    "145042.207500",
    "145044.207500",
    "145046.207500",
    "145048.207500",
    "145050.207500",
    "145052.207500",
    "145054.207500",
    "145056.207500",
    "145058.207500",
    "145100.207500",
    "145102.207500",
    "145104.207500",
    "145106.207500",
    "145108.207500",
    "145110.207500",
    "145112.207500",
    "145114.207500",
    "145116.207500",
    "145118.207500",
    "145120.207500",
    "145122.207500",
    "145124.207500",
    "145126.207500",
    "145128.207500",
    "145130.207500",
    "145132.207500",
    "145134.207500",
    "145136.207500",
    "145138.207500",
    "145140.207500",
    "145142.207500",
    "145144.207500",
    "145146.207500",
    "145148.207500",
    "145150.207500",
    "145152.207500",
    "145154.207500",
    "145156.207500",
    "145158.207500",
    "145200.207500",
    "145202.207500",
    "145204.207500",
    "145206.207500",
    "145208.207500",
    "145210.207500",
    "145212.207500",
    "145214.207500",
    "145216.207500",
    "145218.207500",
    "145220.207500",
    "145222.207500",
    "145224.207500",
    "145226.207500",
    "145228.207500",
    "145230.207500",
    "145232.207500",
    "145234.207500",
    "145236.207500",
    "145238.207500",
    "145240.207500",
    "145242.207500",
    "145244.207500",
    "145246.207500",
    "145248.207500",
    "145250.207500",
    "145252.207500",
    "145254.207500",
    "145256.207500",
    "145258.207500",
    "145300.207500",
    "145302.207500",
    "145304.207500",
    "145306.207500",
    "145308.207500",
    "145310.207500",
    "145312.207500",
    "145314.207500",
    "145316.207500",
    "145318.207500",
    "145320.207500",
    "145322.207500",
    "145324.207500",
    "145326.207500",
    "145328.207500",
    "145330.207500",
    "145332.207500",
    "145334.207500",
    "145336.207500",
    "145338.207500",
    "145340.207500",
    "145342.207500",
    "145344.207500",
    "145346.207500",
    "145348.207500",
    "145350.207500",
    "145352.207500",
    "145354.207500",
    "145356.207500",
    "145358.207500",
    "145400.207500",
    "145402.207500",
    "145404.207500",
    "145406.207500",
    "145408.207500",
    "145410.207500",
    "145412.207500",
    "145414.207500",
    "145416.207500",
    "145418.207500",
    "145420.207500",
    "145422.207500",
    "145424.207500",
    "145426.207500",
    "145428.207500",
    "145430.207500",
    "145432.207500",
    "145434.207500",
    "145436.207500",
    "145438.207500",
    "145440.207500",
    "145442.207500",
    "145444.207500",
    "145446.207500",
    "145448.207500",
    "145450.207500",
    "145452.207500",
    "145454.207500",
    "145456.207500",
    "145458.207500",
    "145500.207500",
    "145502.207500",
    "145504.207500",
    "145506.207500",
    "145508.207500",
    "145510.207500",
    "145512.207500",
    "145514.207500",
    "145516.207500",
    "145518.207500",
    "145520.207500",
    "145522.207500",
    "145524.207500",
    "145526.207500",
    "145528.207500",
    "145530.207500",
    "145532.207500",
    "145534.207500",
    "145536.207500",
    "145538.207500",
    "145540.207500",
    "145542.207500",
    "145544.207500",
    "145546.207500",
    "145548.207500",
    "145550.207500",
    "145552.207500",
    "145554.207500",
    "145556.207500",
    "145558.207500",
    "145600.207500",
    "145602.207500",
    "145604.207500",
    "145606.207500",
    "145608.207500"
   ],
   "ContentTime": [
    "144741.209000",
    "144742.705000",
    "144744.704000",
    "144746.704000",
    "144748.705000",
    "144750.704000",
    "144752.704000",
    "144754.703000",
    "144756.703000",
    "144758.705000",
    "144800.704000",
    "144802.705000",
    "144804.705000",
    "144806.705000",
    "144808.704000",
    "144810.704000",
    "144812.703000",
    "144814.704000",
    "144816.704000",
    "144818.705000",
    "144820.705000",
    "144822.704000",
    "144824.704000",
    "144826.704000",
    "144828.703000",
    "144830.703000",
    "144832.704000",
    "144834.704000",
    "144836.704000",
    "144838.705000",
    "144840.705000",
    "144842.704000",
    "144844.704000",
    "144846.704000",
    "144848.704000",
    "144850.704000",
    "144852.704000",
    "144854.705000",
    "144856.705000",
    "144858.705000",
    "144900.705000",
    "144902.703000",
    "144904.704000",
    "144906.703000",
    "144908.705000",
    "144910.705000",
    "144912.705000",
    "144914.705000",
    "144916.704000",
    "144918.705000",
    "144920.704000",
    "144922.703000",
    "144924.703000",
    "144926.705000",
    "144928.705000",
    "144930.705000",
    "144932.705000",
    "144934.705000",
    "144936.704000",
    "144938.704000",
    "144940.704000",
    "144942.703000",
    "144944.704000",
    "144946.705000",
    "144948.705000",
    "144950.705000",
    "144952.705000",
    "144954.704000",
    "144956.703000",
    "144958.703000",
    "145000.705000",
    "145002.704000",
    "145004.705000",
    "145006.705000",
    "145008.704000",
    "145010.704000",
    "145012.704000",
    "145014.703000",
    "145016.703000",
    "145018.705000",
    "145020.704000",
    "145022.704000",
    "145024.704000",
    "145026.704000",
    "145028.705000",
    "145030.703000",
    "145032.703000",
    "145034.704000",
    "145036.704000",
    "145038.705000",
    "145040.705000",
    "145042.705000",
    "145044.704000",
    "145046.704000",
    "145048.703000",
    "145050.704000",
    "145052.704000",
    "145054.704000",
    "145056.705000",
    "145058.705000",
    "145100.704000",
    "145102.705000",
    "145104.704000",
    "145106.704000",
    "145108.703000",
    "145110.705000",
    "145112.704000",
    "145114.705000",
    "145116.704000",
    "145118.705000",
    "145120.705000",
    "145122.704000",
    "145124.704000",
    "145126.703000",
    "145128.705000",
    "145130.704000",
    "145132.705000",
    "145134.705000",
    "145136.705000",
    "145138.704000",
    "145140.704000",
    "145142.704000",
    "145144.704000",
    "145146.705000",
    "145148.705000",
    "145150.705000",
    "145152.704000",
    "145154.704000",
    "145156.703000",
    "145158.703000",
    "145200.704000",
    "145202.703000",
    "145204.705000",
    "145206.705000",
    "145208.705000",
    "145210.704000",
    "145212.705000",
    "145214.704000",
    "145216.704000",
    "145218.704000",
    "145220.705000",
    "145222.705000",
    "145224.705000",
    "145226.705000",
    "145228.704000",
    "145230.705000",
    "145232.703000",
    "145234.704000",
    "145236.704000",
    "145238.705000",
    "145240.704000",
    "145242.704000",
    "145244.704000",
    "145246.704000",
    "145248.704000",
    "145250.703000",
    "145252.703000",
    "145254.703000",
    "145256.705000",
    "145258.705000",
    "145300.705000",
    "145302.705000",
    "145304.704000",
    "145306.703000",
    "145308.704000",
    "145310.703000",
    "145312.704000",
    "145314.705000",
    "145316.705000",
    "145318.705000",
    "145320.704000",
    "145322.705000",
    "145324.703000",
    "145326.704000",
    "145328.704000",
    "145330.705000",
    "145332.705000",
    "145334.705000",
    "145336.705000",
    "145338.704000",
    "145340.705000",
    "145342.703000",
    "145344.704000",
    "145346.704000",
    "145348.705000",
    "145350.704000",
    "145352.705000",
    "145354.705000",
    "145356.704000",
    "145358.705000",
    "145400.704000",
    "145402.704000",
    "145404.704000",
    "145406.705000",
    "145408.705000",
    "145410.704000",
    "145412.704000",
    "145414.704000",
    "145416.704000",
    "145418.704000",
    "145420.704000",
    "145422.705000",
    "145424.705000",
    "145426.705000",
    "145428.704000",
    "145430.704000",
    "145432.705000",
    "145434.704000",
    "145436.703000",
    "145438.717000",
    "145440.704000",
    "145442.704000",
    "145444.705000",
    "145446.705000",
    "145448.705000",
    "145450.705000",
    "145452.703000",
    "145454.703000",
    "145456.703000",
    "145458.704000",
    "145500.705000",
    "145502.705000",
    "145504.704000",
    "145506.705000",
    "145508.705000",
    "145510.704000",
    "145512.704000",
    "145514.703000",
    "145516.705000",
    "145518.705000",
    "145520.705000",
    "145522.705000",
    "145524.705000",
    "145526.703000",
    "145528.704000",
    "145530.704000",
    "145532.705000",
    "145534.705000",
    "145536.705000",
    "145538.704000",
    "145540.705000",
    "145542.704000",
    "145544.704000",
    "145546.703000",
    "145548.704000",
    "145550.705000",
    "145552.705000",
    "145554.705000",
    "145556.705000",
    "145558.704000",
    "145600.704000",
    "145602.703000",
    "145604.703000",
    "145606.703000",
    "145608.705000",
    "145610.314000"
   ],
   "InstanceCreationTime": [
    "144741.209000",
    "144742.705000",
    "144744.704000",
    "144746.704000",
    "144748.705000",
    "144750.704000",
    "144752.704000",
    "144754.703000",
    "144756.703000",
    "144758.705000",
    "144800.704000",
    "144802.705000",
    "144804.705000",
    "144806.705000",
    "144808.704000",
    "144810.704000",
    "144812.703000",
    "144814.704000",
    "144816.704000",
    "144818.705000",
    "144820.705000",
    "144822.704000",
    "144824.704000",
    "144826.704000",
    "144828.703000",
    "144830.703000",
    "144832.704000",
    "144834.704000",
    "144836.704000",
    "144838.705000",
    "144840.705000",
    "144842.704000",
    "144844.704000",
    "144846.704000",
    "144848.704000",
    "144850.704000",
    "144852.704000",
    "144854.705000",
    "144856.705000",
    "144858.705000",
    "144900.705000",
    "144902.703000",
    "144904.704000",
    "144906.703000",
    "144908.705000",
    "144910.705000",
    "144912.705000",
    "144914.705000",
    "144916.704000",
    "144918.705000",
    "144920.704000",
    "144922.703000",
    "144924.703000",
    "144926.705000",
    "144928.705000",
    "144930.705000",
    "144932.705000",
    "144934.705000",
    "144936.704000",
    "144938.704000",
    "144940.704000",
    "144942.703000",
    "144944.704000",
    "144946.705000",
    "144948.705000",
    "144950.705000",
    "144952.705000",
    "144954.704000",
    "144956.703000",
    "144958.703000",
    "145000.705000",
    "145002.704000",
    "145004.705000",
    "145006.705000",
    "145008.704000",
    "145010.704000",
    "145012.704000",
    "145014.703000",
    "145016.703000",
    "145018.705000",
    "145020.704000",
    "145022.704000",
    "145024.704000",
    "145026.704000",
    "145028.705000",
    "145030.703000",
    "145032.703000",
    "145034.704000",
    "145036.704000",
    "145038.705000",
    "145040.705000",
    "145042.705000",
    "145044.704000",
    "145046.704000",
    "145048.703000",
    "145050.704000",
    "145052.704000",
    "145054.704000",
    "145056.705000",
    "145058.705000",
    "145100.704000",
    "145102.705000",
    "145104.704000",
    "145106.704000",
    "145108.703000",
    "145110.705000",
    "145112.704000",
    "145114.705000",
    "145116.704000",
    "145118.705000",
    "145120.705000",
    "145122.704000",
    "145124.704000",
    "145126.703000",
    "145128.705000",
    "145130.704000",
    "145132.705000",
    "145134.705000",
    "145136.705000",
    "145138.704000",
    "145140.704000",
    "145142.704000",
    "145144.704000",
    "145146.705000",
    "145148.705000",
    "145150.705000",
    "145152.704000",
    "145154.704000",
    "145156.703000",
    "145158.703000",
    "145200.704000",
    "145202.703000",
    "145204.705000",
    "145206.705000",
    "145208.705000",
    "145210.704000",
    "145212.705000",
    "145214.704000",
    "145216.704000",
    "145218.704000",
    "145220.705000",
    "145222.705000",
    "145224.705000",
    "145226.705000",
    "145228.704000",
    "145230.705000",
    "145232.703000",
    "145234.704000",
    "145236.704000",
    "145238.705000",
    "145240.704000",
    "145242.704000",
    "145244.704000",
    "145246.704000",
    "145248.704000",
    "145250.703000",
    "145252.703000",
    "145254.703000",
    "145256.705000",
    "145258.705000",
    "145300.705000",
    "145302.705000",
    "145304.704000",
    "145306.703000",
    "145308.704000",
    "145310.703000",
    "145312.704000",
    "145314.705000",
    "145316.705000",
    "145318.705000",
    "145320.704000",
    "145322.705000",
    "145324.703000",
    "145326.704000",
    "145328.704000",
    "145330.705000",
    "145332.705000",
    "145334.705000",
    "145336.705000",
    "145338.704000",
    "145340.705000",
    "145342.703000",
    "145344.704000",
    "145346.704000",
    "145348.705000",
    "145350.704000",
    "145352.705000",
    "145354.705000",
    "145356.704000",
    "145358.705000",
    "145400.704000",
    "145402.704000",
    "145404.704000",
    "145406.705000",
    "145408.705000",
    "145410.704000",
    "145412.704000",
    "145414.704000",
    "145416.704000",
    "145418.704000",
    "145420.704000",
    "145422.705000",
    "145424.705000",
    "145426.705000",
    "145428.704000",
    "145430.704000",
    "145432.705000",
    "145434.704000",
    "145436.703000",
    "145438.717000",
    "145440.704000",
    "145442.704000",
    "145444.705000",
    "145446.705000",
    "145448.705000",
    "145450.705000",
    "145452.703000",
    "145454.703000",
    "145456.703000",
    "145458.704000",
    "145500.705000",
    "145502.705000",
    "145504.704000",
    "145506.705000",
    "145508.705000",
    "145510.704000",
    "145512.704000",
    "145514.703000",
    "145516.705000",
    "145518.705000",
    "145520.705000",
    "145522.705000",
    "145524.705000",
    "145526.703000",
    "145528.704000",
    "145530.704000",
    "145532.705000",
    "145534.705000",
    "145536.705000",
    "145538.704000",
    "145540.705000",
    "145542.704000",
    "145544.704000",
    "145546.703000",
    "145548.704000",
    "145550.705000",
    "145552.705000",
    "145554.705000",
    "145556.705000",
    "145558.704000",
    "145600.704000",
    "145602.703000",
    "145604.703000",
    "145606.703000",
    "145608.705000",
    "145610.314000"
   ],
   "InstanceNumber": [
    1,
    2,
    3,
    4,
    5,
    6,
    7,
    8,
    9,
    10,
    11,
    12,
    13,
    14,
    15,
    16,
    17,
    18,
    19,
    20,
    21,
    22,
    23,
    24,
    25,
    26,
    27,
    28,
    29,
    30,
    31,
    32,
    33,
    34,
    35,
    36,
    37,
    38,
    39,
    40,
    41,
    42,
    43,
    44,
    45,
    46,
    47,
    48,
    49,
    50,
    51,
    52,
    53,
    54,
    55,
    56,
    57,
    58,
    59,
    60,
    61,
    62,
    63,
    64,
    65,
    66,
    67,
    68,
    69,
    70,
    71,
    72,
    73,
    74,
    75,
    76,
    77,
    78,
    79,
    80,
    81,
    82,
    83,
    84,
    85,
    86,
    87,
    88,
    89,
    90,
    91,
    92,
    93,
    94,
    95,
    96,
    97,
    98,
    99,
    100,
    101,
    102,
    103,
    104,
    105,
    106,
    107,
    108,
    109,
    110,
    111,
    112,
    113,
    114,
    115,
    116,
    117,
    118,
    119,
    120,
    121,
    122,
    123,
    124,
    125,
    126,
    127,
    128,
    129,
    130,
    131,
    132,
    133,
    134,
    135,
    136,
    137,
    138,
    139,
    140,
    141,
    142,
    143,
    144,
    145,
    146,
    147,
    148,
    149,
    150,
    151,
    152,
    153,
    154,
    155,
    156,
    157,
    158,
    159,
    160,
    161,
    162,
    163,
    164,
    165,
    166,
    167,
    168,
    169,
    170,
    171,
    172,
    173,
    174,
    175,
    176,
    177,
    178,
    179,
    180,
    181,
    182,
    183,
    184,
    185,
    186,
    187,
    188,
    189,
    190,
    191,
    192,
    193,
    194,
    195,
    196,
    197,
    198,
    199,
    200,
    201,
    202,
    203,
    204,
    205,
    206,
    207,
    208,
    209,
    210,
    211,
    212,
    213,
    214,
    215,
    216,
    217,
    218,
    219,
    220,
    221,
    222,
    223,
    224,
    225,
    226,
    227,
    228,
    229,
    230,
    231,
    232,
    233,
    234,
    235,
    236,
    237,
    238,
    239,
    240,
    241,
    242,
    243,
    244,
    245,
    246,
    247,
    248,
    249,
    250,
    251,
    252,
    253,
    254,
    255,
    256
   ],
   "LargestImagePixelValue": [
    2439,
    2433,
    2440,
    2454,
    2443,
    2461,
    2455,
    2422,
    2429,
    2446,
    2440,
    2415,
    2468,
    2433,
    2439,
    2411,
    2427,
    2428,
    2451,
    2444,
    2420,
    2424,
    2449,
    2436,
    2450,
    2422,
    2398,
    2418,
    2471,
    2417,
    2401,
    2378,
    2409,
    2448,
    2428,
    2402,
    2431,
    2439,
    2433,
    2498,
    2412,
    2416,
    2427,
    2431,
    2450,
    2433,
    2437,
    2443,
    2418,
    2415,
    2429,
    2441,
    2445,
    2426,
    2425,
    2456,
    2478,
    2453,
    2443,
    2415,
    2461,
    2427,
    2426,
    2409,
    2438,
    2406,
    2398,
    2401,
    2437,
    2428,
    2416,
    2436,
    2402,
    2411,
    2436,
    2402,
    2430,
    2474,
    2460,
    2445,
    2458,
    2453,
    2566,
    2423,
    2440,
    2410,
    2430,
    2424,
    2426,
    2439,
    2421,
    2452,
    2421,
    2405,
    2425,
    2490,
    2428,
    2424,
    2412,
    2421,
    2406,
    2409,
    2413,
    2419,
    2394,
    2434,
    2423,
    2408,
    2424,
    2401,
    2403,
    2419,
    2414,
    2404,
    2426,
    2412,
    2405,
    2426,
    2443,
    2414,
    2423,
    2380,
    2417,
    2400,
    2446,
    2427,
    2437,
    2415,
    2439,
    2460,
    2461,
    2426,
    2415,
    2439,
    2436,
    2442,
    2446,
    2435,
    2437,
    2401,
    2402,
    2451,
    2445,
    2460,
    2427,
    2431,
    2376,
    2391,
    2414,
    2421,
    2438,
    2433,
    2427,
    2427,
    2437,
    2399,
    2402,
    2429,
    2426,
    2394,
    2443,
    2405,
    2412,
    2426,
    2420,
    2434,
    2455,
    2416,
    2420,
    2417,
    2434,
    2458,
    2439,
    2470,
    2451,
    2449,
    2452,
    2456,
    2426,
    2460,
    2466,
    2459,
    2439,
    2446,
    2469,
    2468,
    2456,
    2488,
    2434,
    2464,
    2479,
    2428,
    2428,
    2449,
    2467,
    2454,
    2460,
    2469,
    2437,
    2504,
    2456,
    2481,
    2476,
    2500,
    2467,
    2484,
    2464,
    2462,
    2502,
    2477,
    2498,
    2475,
    2480,
    2475,
    2478,
    2465,
    2476,
    2465,
    2468,
    2449,
    2484,
    2501,
    2487,
    2479,
    2485,
    2468,
    2483,
    2518,
    2457,
    2468,
    2507,
    2491,
    2464,
    2463,
    2476,
    2477,
    2472,
    2495,
    2484,
    2517,
    2496,
    2528,
    2491,
    2495,
    2486,
    2524,
    2506,
    2475,
    2474,
    2496,
    2506,
    2476,
    2460,
    2508,
    2457,
    2485
   ],
   "WindowCenter": [
    714.0,
    713.0,
    713.0,
    713.0,
    713.0,
    714.0,
    715.0,
    714.0,
    713.0,
    713.0,
    714.0,
    714.0,
    714.0,
    714.0,
    713.0,
    712.0,
    711.0,
    711.0,
    712.0,
    712.0,
    712.0,
    712.0,
    713.0,
    712.0,
    712.0,
    711.0,
    710.0,
    712.0,
    713.0,
    712.0,
    711.0,
    711.0,
    711.0,
    712.0,
    712.0,
    711.0,
    712.0,
    712.0,
    713.0,
    715.0,
    713.0,
    711.0,
    711.0,
    711.0,
    711.0,
    712.0,
    712.0,
    712.0,
    712.0,
    711.0,
    712.0,
    712.0,
    712.0,
    712.0,
    711.0,
    712.0,
    712.0,
    711.0,
    711.0,
    713.0,
    714.0,
    713.0,
    712.0,
    712.0,
    713.0,
    711.0,
    711.0,
    710.0,
    711.0,
    712.0,
    713.0,
    712.0,
    711.0,
    711.0,
    712.0,
    712.0,
    713.0,
    713.0,
    713.0,
    713.0,
    713.0,
    713.0,
    714.0,
    713.0,
    713.0,
    711.0,
    711.0,
    711.0,
    711.0,
    712.0,
    713.0,
    712.0,
    710.0,
    710.0,
    713.0,
    714.0,
    712.0,
    711.0,
    710.0,
    710.0,
    710.0,
    710.0,
    711.0,
    711.0,
    711.0,
    712.0,
    712.0,
    712.0,
    711.0,
    710.0,
    710.0,
    710.0,
    711.0,
    711.0,
    711.0,
    710.0,
    711.0,
    712.0,
    713.0,
    713.0,
    711.0,
    708.0,
    709.0,
    709.0,
    711.0,
    712.0,
    712.0,
