{
  "AcquisitionMatrixPE": 100,
  "AcquisitionNumber": 1,
  "AcquisitionTime": "13:24:9.700000",
  "BandwidthPerPixelPhaseEncode": 18.519,
  "BaseResolution": 100,
  "BodyPartExamined": "BRAIN",
  "ConsistencyInfo": "N4_VE11C_LATEST_20160120",
  "ConversionSoftware": "dcm2niix",
  "ConversionSoftwareVersion": "v1.0.20180622 GCC4.9.2",
  "DerivedVendorReportedEchoSpacing": 0.000539986,
  "DeviceSerialNumber": "166078",
  "DwellTime": 2.1e-06,
  "EchoTime": 0.034,
  "EchoTrainLength": 100,
  "EffectiveEchoSpacing": 0.000539986,
  "FlipAngle": 90,
  "ImageOrientationPatientDICOM": [1, 0, 0, 0, 0.985996, -0.166769],
  "ImageType": [
    "ORIGINAL",
    "PRIMARY",
    "M",
    "ND",
    "MOSAIC"
],
  "InPlanePhaseEncodingDirectionDICOM": "COL",
  "InstitutionAddress": "Street_StreetNo_Bei_Jing_District_CN_ZIP",
  "InstitutionName": "BeiJing_Normal_University",
  "InstitutionalDepartmentName": "Department",
  "MRAcquisitionType": "2D",
  "MagneticFieldStrength": 3,
  "Manufacturer": "Siemens",
  "ManufacturersModelName": "Prisma",
  "Modality": "MR",
  "MultibandAccelerationFactor": 3,
  "PartialFourier": 1,
  "PatientPosition": "HFS",
  "PercentPhaseFOV": 100,
  "PhaseEncodingDirection": "j-",
  "PhaseEncodingSteps": 100,
  "PhaseResolution": 1,
  "PixelBandwidth": 2380,
  "ProcedureStepDescription": "BNU_P2018_64CH_Zhen.ZongLei",
  "ProtocolName": "bold_100x100_s3_2x2x2_static_256",
  "PulseSequenceDetails": "%SiemensSeq%_ep2d_bold",
  "ReceiveCoilActiveElements": "HC1-7;NC1",
  "ReceiveCoilName": "HeadNeck_64",
  "ReconMatrixPE": 100,
  "RepetitionTime": 2,
  "SAR": 0.0757053,
  "ScanOptions": "FS",
  "ScanningSequence": "EP",
  "SequenceName": "_epfid2d1_100",
  "SequenceVariant": "SK",
  "SeriesDescription": "bold_100x100_s3_2x2x2_static_256",
  "SeriesNumber": 5,
  "ShimSetting": [-5460, -11537, -1250, 483, -22, -387, -91, 30],
  "SliceThickness": 2,
  "SliceTiming": [1.485, 0, 0.99, 0.0825, 1.0725, 0.165, 1.155, 0.2475, 1.2375, 0.33, 1.32, 0.4125, 1.4025, 0.5775, 1.5675, 0.66, 1.65, 0.7425, 1.7325, 0.825, 1.815, 0.9075, 1.8975, 0.495, 1.485, 0, 0.99, 0.0825, 1.0725, 0.165, 1.155, 0.2475, 1.2375, 0.33, 1.32, 0.4125, 1.4025, 0.5775, 1.5675, 0.66, 1.65, 0.7425, 1.7325, 0.825, 1.815, 0.9075, 1.8975, 0.495, 1.485, 0, 0.99, 0.0825, 1.0725, 0.165, 1.155, 0.2475, 1.2375, 0.33, 1.32, 0.4125, 1.4025, 0.5775, 1.5675, 0.66, 1.65, 0.7425, 1.7325, 0.825, 1.815, 0.9075, 1.8975, 0.495],
  "SoftwareVersions": "syngo_MR_E11",
  "SpacingBetweenSlices": 2,
  "StationName": "AWP166078",
  "TaskName": "naturalvision",
  "TotalReadoutTime": 0.0534586,
  "TxRefAmp": 210.46,
  "dcmmeta_affine": [
    [-2.0, 0.0, 0.0, 100.0],
    [0.0, 1.971992015838623, -0.3335374891757965, -86.56427001953125],
    [0.0, 0.3335374891757965, 1.971992015838623, -85.72920227050781],
    [0.0, 0.0, 0.0, 1.0]
],
  "dcmmeta_reorient_transform": [
    [0.0, -1.0, 0.0, 99.0],
    [1.0, 0.0, 0.0, 0.0],
    [0.0, 0.0, 1.0, 0.0],
    [0.0, 0.0, 0.0, 1.0]
],
  "dcmmeta_shape": [100, 100, 72, 256],
  "dcmmeta_slice_dim": 2,
  "dcmmeta_version": 0.6,
  "global": {
    "const": {
      "AcquisitionMatrix": [100, 0, 0, 100],
      "AngioFlag": "N",
      "BitsAllocated": 16,
      "BitsStored": 12,
      "BodyPartExamined": "BRAIN",
      "Columns": 900,
      "EchoNumbers": 1,
      "EchoTime": 34.0,
      "EchoTrainLength": 100,
      "FlipAngle": 90.0,
      "HighBit": 11,
      "ImageOrientationPatient": [1.0, 0.0, 0.0, 0.0, 0.98599603751451, -0.166768744091],
      "ImagePositionPatient": [-900.0, -897.45977490381, 80.706005424105],
      "ImageType": [
        "ORIGINAL",
        "PRIMARY",
        "M",
        "ND",
        "MOSAIC"
],
      "ImagedNucleus": "1H",
      "ImagingFrequency": 123.257729,
      "InPlanePhaseEncodingDirection": "COL",
      "MRAcquisitionType": "2D",
      "MagneticFieldStrength": 3.0,
      "Manufacturer": "SIEMENS",
      "ManufacturerModelName": "Prisma",
      "Modality": "MR",
      "NumberOfAverages": 1.0,
      "NumberOfPhaseEncodingSteps": 100,
      "PercentPhaseFieldOfView": 100.0,
      "PercentSampling": 100.0,
      "PerformedProcedureStepStartTime": "130057.019000",
      "PhotometricInterpretation": "MONOCHROME2",
      "PixelBandwidth": 2380.0,
      "PixelRepresentation": 0,
      "PixelSpacing": [2.0, 2.0],
      "ProtocolName": "bold_100x100_s3_2x2x2_static_256",
      "RepetitionTime": 2000.0,
      "Rows": 900,
      "SAR": 0.07570534304364,
      "SamplesPerPixel": 1,
      "ScanOptions": "FS",
      "ScanningSequence": "EP",
      "SequenceName": "*epfid2d1_100",
      "SequenceVariant": "SK",
      "SeriesDescription": "bold_100x100_s3_2x2x2_static_256",
      "SeriesNumber": 5,
      "SeriesTime": "132412.606000",
      "SliceLocation": -70.092437981124,
      "SliceThickness": 2.0,
      "SmallestImagePixelValue": 0,
      "SoftwareVersions": "syngo MR E11",
      "SpacingBetweenSlices": 1.999999988508,
      "SpecificCharacterSet": "ISO_IR 100",
      "StudyID": "1",
      "StudyTime": "130056.942000",
      "TransmitCoilName": "Body",
      "VariableFlipAngleFlag": "N",
      "WindowCenterWidthExplanation": "Algo1",
      "dBdt": 0.0},
    "slices": {}
  },
  "time": {
    "samples": {
      "AcquisitionNumber": [1, 2, 3, 4, 5, 6, 7, 8, 9, 10, 11, 12, 13, 14, 15, 16, 17, 18, 19, 20, 21, 22, 23, 24, 25, 26, 27, 28, 29, 30, 31, 32, 33, 34, 35, 36, 37, 38, 39, 40, 41, 42, 43, 44, 45, 46, 47, 48, 49, 50, 51, 52, 53, 54, 55, 56, 57, 58, 59, 60, 61, 62, 63, 64, 65, 66, 67, 68, 69, 70, 71, 72, 73, 74, 75, 76, 77, 78, 79, 80, 81, 82, 83, 84, 85, 86, 87, 88, 89, 90, 91, 92, 93, 94, 95, 96, 97, 98, 99, 100, 101, 102, 103, 104, 105, 106, 107, 108, 109, 110, 111, 112, 113, 114, 115, 116, 117, 118, 119, 120, 121, 122, 123, 124, 125, 126, 127, 128, 129, 130, 131, 132, 133, 134, 135, 136, 137, 138, 139, 140, 141, 142, 143, 144, 145, 146, 147, 148, 149, 150, 151, 152, 153, 154, 155, 156, 157, 158, 159, 160, 161, 162, 163, 164, 165, 166, 167, 168, 169, 170, 171, 172, 173, 174, 175, 176, 177, 178, 179, 180, 181, 182, 183, 184, 185, 186, 187, 188, 189, 190, 191, 192, 193, 194, 195, 196, 197, 198, 199, 200, 201, 202, 203, 204, 205, 206, 207, 208, 209, 210, 211, 212, 213, 214, 215, 216, 217, 218, 219, 220, 221, 222, 223, 224, 225, 226, 227, 228, 229, 230, 231, 232, 233, 234, 235, 236, 237, 238, 239, 240, 241, 242, 243, 244, 245, 246, 247, 248, 249, 250, 251, 252, 253, 254, 255, 256],
      "AcquisitionTime": ["132409.700000", "132411.700000", "132413.700000", "132415.700000", "132417.700000", "132419.700000", "132421.700000", "132423.700000", "132425.700000", "132427.700000", "132429.700000", "132431.700000", "132433.700000", "132435.700000", "132437.700000", "132439.700000", "132441.700000", "132443.700000", "132445.700000", "132447.700000", "132449.700000", "132451.700000", "132453.700000", "132455.700000", "132457.700000", "132459.700000", "132501.700000", "132503.700000", "132505.700000", "132507.700000", "132509.700000", "132511.700000", "132513.700000", "132515.700000", "132517.700000", "132519.700000", "132521.700000", "132523.700000", "132525.700000", "132527.700000", "132529.700000", "132531.700000", "132533.700000", "132535.700000", "132537.700000", "132539.700000", "132541.700000", "132543.700000", "132545.700000", "132547.700000", "132549.700000", "132551.700000", "132553.700000", "132555.700000", "132557.700000", "132559.700000", "132601.700000", "132603.700000", "132605.700000", "132607.700000", "132609.700000", "132611.700000", "132613.700000", "132615.700000", "132617.700000", "132619.700000", "132621.700000", "132623.700000", "132625.700000", "132627.700000", "132629.700000", "132631.700000", "132633.700000", "132635.700000", "132637.700000", "132639.700000", "132641.700000", "132643.700000", "132645.700000", "132647.700000", "132649.700000", "132651.700000", "132653.700000", "132655.700000", "132657.700000", "132659.700000", "132701.700000", "132703.700000", "132705.700000", "132707.700000", "132709.700000", "132711.700000", "132713.700000", "132715.700000", "132717.700000", "132719.700000", "132721.700000", "132723.700000", "132725.700000", "132727.700000", "132729.700000", "132731.700000", "132733.700000", "132735.700000", "132737.700000", "132739.700000", "132741.700000", "132743.700000", "132745.700000", "132747.700000", "132749.700000", "132751.700000", "132753.700000", "132755.700000", "132757.700000", "132759.700000", "132801.700000", "132803.700000", "132805.700000", "132807.700000", "132809.700000", "132811.700000", "132813.700000", "132815.700000", "132817.700000", "132819.700000", "132821.700000", "132823.700000", "132825.700000", "132827.700000", "132829.700000", "132831.700000", "132833.700000", "132835.700000", "132837.700000", "132839.700000", "132841.700000", "132843.700000", "132845.700000", "132847.700000", "132849.700000", "132851.700000", "132853.700000", "132855.700000", "132857.700000", "132859.700000", "132901.700000", "132903.700000", "132905.700000", "132907.700000", "132909.700000", "132911.700000", "132913.700000", "132915.700000", "132917.700000", "132919.700000", "132921.700000", "132923.700000", "132925.700000", "132927.700000", "132929.700000", "132931.700000", "132933.700000", "132935.700000", "132937.700000", "132939.700000", "132941.700000", "132943.700000", "132945.700000", "132947.700000", "132949.700000", "132951.700000", "132953.700000", "132955.700000", "132957.700000", "132959.700000", "133001.700000", "133003.700000", "133005.700000", "133007.700000", "133009.700000", "133011.700000", "133013.700000", "133015.700000", "133017.700000", "133019.700000", "133021.700000", "133023.700000", "133025.700000", "133027.700000", "133029.700000", "133031.700000", "133033.700000", "133035.700000", "133037.700000", "133039.700000", "133041.700000", "133043.700000", "133045.700000", "133047.700000", "133049.700000", "133051.700000", "133053.700000", "133055.700000", "133057.700000", "133059.700000", "133101.700000", "133103.700000", "133105.700000", "133107.700000", "133109.700000", "133111.700000", "133113.700000", "133115.700000", "133117.700000", "133119.700000", "133121.700000", "133123.700000", "133125.700000", "133127.700000", "133129.700000", "133131.700000", "133133.700000", "133135.700000", "133137.700000", "133139.700000", "133141.700000", "133143.700000", "133145.700000", "133147.700000", "133149.700000", "133151.700000", "133153.700000", "133155.700000", "133157.700000", "133159.700000", "133201.700000", "133203.700000", "133205.700000", "133207.700000", "133209.700000", "133211.700000", "133213.700000", "133215.700000", "133217.700000", "133219.700000", "133221.700000", "133223.700000", "133225.700000", "133227.700000", "133229.700000", "133231.700000", "133233.700000", "133235.700000", "133237.700000", "133239.700000"],
      "ContentTime": ["132412.609000", "132414.099000", "132416.098000", "132418.098000", "132420.098000", "132422.099000", "132424.099000", "132426.098000", "132428.098000", "132430.098000", "132432.098000", "132434.097000", "132436.098000", "132438.098000", "132440.098000", "132442.098000", "132444.099000", "132446.099000", "132448.099000", "132450.098000", "132452.097000", "132454.097000", "132456.098000", "132458.098000", "132500.099000", "132502.098000", "132504.099000", "132506.099000", "132508.098000", "132510.097000", "132512.097000", "132514.099000", "132516.098000", "132518.098000", "132520.098000", "132522.098000", "132524.099000", "132526.097000", "132528.098000", "132530.098000", "132532.099000", "132534.098000", "132536.099000", "132538.099000", "132540.098000", "132542.099000", "132544.098000", "132546.098000", "132548.099000", "132550.098000", "132552.099000", "132554.099000", "132556.099000", "132558.098000", "132600.097000", "132602.098000", "132604.097000", "132606.099000", "132608.099000", "132610.099000", "132612.098000", "132614.099000", "132616.098000", "132618.097000", "132620.097000", "132622.098000", "132624.098000", "132626.099000", "132628.099000", "132630.098000", "132632.099000", "132634.099000", "132636.098000", "132638.097000", "132640.099000", "132642.098000", "132644.098000", "132646.098000", "132648.098000", "132650.098000", "132652.098000", "132654.097000", "132656.097000", "132658.098000", "132700.098000", "132702.099000", "132704.099000", "132706.099000", "132708.099000", "132710.097000", "132712.098000", "132714.098000", "132716.099000", "132718.099000", "132720.098000", "132722.099000", "132724.099000", "132726.099000", "132728.098000", "132730.097000", "132732.098000", "132734.099000", "132736.099000", "132738.099000", "132740.099000", "132742.098000", "132744.099000", "132746.098000", "132748.097000", "132750.098000", "132752.099000", "132754.099000", "132756.098000", "132758.098000", "132800.099000", "132802.099000", "132804.098000", "132806.097000", "132808.098000", "132810.099000", "132812.099000", "132814.099000", "132816.099000", "132818.098000", "132820.098000", "132822.098000", "132824.098000", "132826.098000", "132828.099000", "132830.098000", "132832.099000", "132834.099000", "132836.098000", "132838.097000", "132840.097000", "132842.097000", "132844.098000", "132846.099000", "132848.099000", "132850.099000", "132852.098000", "132854.099000", "132856.098000", "132858.097000", "132900.099000", "132902.098000", "132904.099000", "132906.098000", "132908.098000", "132910.099000", "132912.098000", "132914.098000", "132916.098000", "132918.099000", "132920.099000", "132922.099000", "132924.098000", "132926.099000", "132928.098000", "132930.098000", "132932.098000", "132934.097000", "132936.098000", "132938.099000", "132940.098000", "132942.099000", "132944.099000", "132946.098000", "132948.097000", "132950.098000", "132952.097000", "132954.098000", "132956.099000", "132958.099000", "133000.098000", "133002.098000", "133004.108000", "133006.098000", "133008.098000", "133010.099000", "133012.099000", "133014.098000", "133016.098000", "133018.098000", "133020.098000", "133022.098000", "133024.097000", "133026.098000", "133028.099000", "133030.098000", "133032.099000", "133034.098000", "133036.098000", "133038.099000", "133040.097000", "133042.098000", "133044.098000", "133046.099000", "133048.099000", "133050.098000", "133052.099000", "133054.099000", "133056.099000", "133058.098000", "133100.098000", "133102.098000", "133104.099000", "133106.099000", "133108.098000", "133110.099000", "133112.098000", "133114.099000", "133116.098000", "133118.098000", "133120.098000", "133122.098000", "133124.099000", "133126.099000", "133128.099000", "133130.099000", "133132.099000", "133134.097000", "133136.098000", "133138.099000", "133140.099000", "133142.099000", "133144.099000", "133146.099000", "133148.098000", "133150.098000", "133152.098000", "133154.097000", "133156.099000", "133158.099000", "133200.099000", "133202.099000", "133204.099000", "133206.099000", "133208.097000", "133210.098000", "133212.098000", "133214.099000", "133216.099000", "133218.098000", "133220.099000", "133222.099000", "133224.098000", "133226.097000", "133228.098000", "133230.099000", "133232.098000", "133234.099000", "133236.099000", "133238.099000", "133240.099000", "133241.764000"],
      "InstanceCreationTime": ["132412.609000", "132414.099000", "132416.098000", "132418.098000", "132420.098000", "132422.099000", "132424.099000", "132426.098000", "132428.098000", "132430.098000", "132432.098000", "132434.097000", "132436.098000", "132438.098000", "132440.098000", "132442.098000", "132444.099000", "132446.099000", "132448.099000", "132450.098000", "132452.097000", "132454.097000", "132456.098000", "132458.098000", "132500.099000", "132502.098000", "132504.099000", "132506.099000", "132508.098000", "132510.097000", "132512.097000", "132514.099000", "132516.098000", "132518.098000", "132520.098000", "132522.098000", "132524.099000", "132526.097000", "132528.098000", "132530.098000", "132532.099000", "132534.098000", "132536.099000", "132538.099000", "132540.098000", "132542.099000", "132544.098000", "132546.098000", "132548.099000", "132550.098000", "132552.099000", "132554.099000", "132556.099000", "132558.098000", "132600.097000", "132602.098000", "132604.097000", "132606.099000", "132608.099000", "132610.099000", "132612.098000", "132614.099000", "132616.098000", "132618.097000", "132620.097000", "132622.098000", "132624.098000", "132626.099000", "132628.099000", "132630.098000", "132632.099000", "132634.099000", "132636.098000", "132638.097000", "132640.099000", "132642.098000", "132644.098000", "132646.098000", "132648.098000", "132650.098000", "132652.098000", "132654.097000", "132656.097000", "132658.098000", "132700.098000", "132702.099000", "132704.099000", "132706.099000", "132708.099000", "132710.097000", "132712.098000", "132714.098000", "132716.099000", "132718.099000", "132720.098000", "132722.099000", "132724.099000", "132726.099000", "132728.098000", "132730.097000", "132732.098000", "132734.099000", "132736.099000", "132738.099000", "132740.099000", "132742.098000", "132744.099000", "132746.098000", "132748.097000", "132750.098000", "132752.099000", "132754.099000", "132756.098000", "132758.098000", "132800.099000", "132802.099000", "132804.098000", "132806.097000", "132808.098000", "132810.099000", "132812.099000", "132814.099000", "132816.099000", "132818.098000", "132820.098000", "132822.098000", "132824.098000", "132826.098000", "132828.099000", "132830.098000", "132832.099000", "132834.099000", "132836.098000", "132838.097000", "132840.097000", "132842.097000", "132844.098000", "132846.099000", "132848.099000", "132850.099000", "132852.098000", "132854.099000", "132856.098000", "132858.097000", "132900.099000", "132902.098000", "132904.099000", "132906.098000", "132908.098000", "132910.099000", "132912.098000", "132914.098000", "132916.098000", "132918.099000", "132920.099000", "132922.099000", "132924.098000", "132926.099000", "132928.098000", "132930.098000", "132932.098000", "132934.097000", "132936.098000", "132938.099000", "132940.098000", "132942.099000", "132944.099000", "132946.098000", "132948.097000", "132950.098000", "132952.097000", "132954.098000", "132956.099000", "132958.099000", "133000.098000", "133002.098000", "133004.108000", "133006.098000", "133008.098000", "133010.099000", "133012.099000", "133014.098000", "133016.098000", "133018.098000", "133020.098000", "133022.098000", "133024.097000", "133026.098000", "133028.099000", "133030.098000", "133032.099000", "133034.098000", "133036.098000", "133038.099000", "133040.097000", "133042.098000", "133044.098000", "133046.099000", "133048.099000", "133050.098000", "133052.099000", "133054.099000", "133056.099000", "133058.098000", "133100.098000", "133102.098000", "133104.099000", "133106.099000", "133108.098000", "133110.099000", "133112.098000", "133114.099000", "133116.098000", "133118.098000", "133120.098000", "133122.098000", "133124.099000", "133126.099000", "133128.099000", "133130.099000", "133132.099000", "133134.097000", "133136.098000", "133138.099000", "133140.099000", "133142.099000", "133144.099000", "133146.099000", "133148.098000", "133150.098000", "133152.098000", "133154.097000", "133156.099000", "133158.099000", "133200.099000", "133202.099000", "133204.099000", "133206.099000", "133208.097000", "133210.098000", "133212.098000", "133214.099000", "133216.099000", "133218.098000", "133220.099000", "133222.099000", "133224.098000", "133226.097000", "133228.098000", "133230.099000", "133232.098000", "133234.099000", "133236.099000", "133238.099000", "133240.099000", "133241.764000"],
      "InstanceNumber": [1, 2, 3, 4, 5, 6, 7, 8, 9, 10, 11, 12, 13, 14, 15, 16, 17, 18, 19, 20, 21, 22, 23, 24, 25, 26, 27, 28, 29, 30, 31, 32, 33, 34, 35, 36, 37, 38, 39, 40, 41, 42, 43, 44, 45, 46, 47, 48, 49, 50, 51, 52, 53, 54, 55, 56, 57, 58, 59, 60, 61, 62, 63, 64, 65, 66, 67, 68, 69, 70, 71, 72, 73, 74, 75, 76, 77, 78, 79, 80, 81, 82, 83, 84, 85, 86, 87, 88, 89, 90, 91, 92, 93, 94, 95, 96, 97, 98, 99, 100, 101, 102, 103, 104, 105, 106, 107, 108, 109, 110, 111, 112, 113, 114, 115, 116, 117, 118, 119, 120, 121, 122, 123, 124, 125, 126, 127, 128, 129, 130, 131, 132, 133, 134, 135, 136, 137, 138, 139, 140, 141, 142, 143, 144, 145, 146, 147, 148, 149, 150, 151, 152, 153, 154, 155, 156, 157, 158, 159, 160, 161, 162, 163, 164, 165, 166, 167, 168, 169, 170, 171, 172, 173, 174, 175, 176, 177, 178, 179, 180, 181, 182, 183, 184, 185, 186, 187, 188, 189, 190, 191, 192, 193, 194, 195, 196, 197, 198, 199, 200, 201, 202, 203, 204, 205, 206, 207, 208, 209, 210, 211, 212, 213, 214, 215, 216, 217, 218, 219, 220, 221, 222, 223, 224, 225, 226, 227, 228, 229, 230, 231, 232, 233, 234, 235, 236, 237, 238, 239, 240, 241, 242, 243, 244, 245, 246, 247, 248, 249, 250, 251, 252, 253, 254, 255, 256],
      "LargestImagePixelValue": [2682, 2659, 2655, 2652, 2667, 2624, 2632, 2637, 2668, 2689, 2710, 2707, 2710, 2650, 2643, 2649, 2628, 2642, 2656, 2642, 2615, 2634, 2629, 2624, 2644, 2635, 2661, 2632, 2651, 2651, 2672, 2666, 2674, 2649, 2660, 2649, 2686, 2657, 2649, 2680, 2658, 2661, 2658, 2684, 2666, 2674, 2645, 2676, 2704, 2696, 2659, 2659, 2664, 2676, 2658, 2682, 2662, 2653, 2655, 2650, 2663, 2671, 2660, 2677, 2681, 2688, 2663, 2660, 2653, 2672, 2680, 2677, 2664, 2690, 2663, 2655, 2677, 2666, 2664, 2687, 2699, 2664, 2655, 2686, 2686, 2650, 2675, 2675, 2660, 2673, 2663, 2683, 2679, 2677, 2657, 2672, 2705, 2688, 2642, 2653, 2676, 2682, 2667, 2683, 2649, 2694, 2678, 2666, 2651, 2671, 2691, 2658, 2680, 2688, 2656, 2657, 2683, 2670, 2687, 2672, 2688, 2696, 2671, 2671, 2666, 2682, 2658, 2680, 2673, 2698, 2672, 2667, 2660, 2681, 2656, 2699, 2683, 2660, 2716, 2678, 2692, 2683, 2679, 2671, 2671, 2684, 2699, 2673, 2661, 2686, 2662, 2670, 2660, 2692, 2655, 2697, 2658, 2679, 2683, 2677, 2687, 2699, 2654, 2661, 2667, 2656, 2702, 2660, 2671, 2679, 2670, 2666, 2676, 2651, 2672, 2686, 2666, 2673, 2685, 2677, 2666, 2696, 2669, 2679, 2642, 2668, 2669, 2637, 2671, 2681, 2650, 2675, 2670, 2652, 2632, 2654, 2677, 2664, 2647, 2672, 2644, 2675, 2660, 2675, 2673, 2671, 2658, 2649, 2673, 2658, 2659, 2680, 2662, 2649, 2661, 2674, 2657, 2660, 2666, 2648, 2649, 2654, 2662, 2650, 2656, 2649, 2638, 2647, 2657, 2658, 2667, 2675, 2689, 2653, 2663, 2680, 2649, 2653, 2653, 2669, 2674, 2670, 2646, 2659, 2654, 2658, 2699, 2678, 2664, 2672, 2643, 2656, 2626, 2633, 2659, 2642],
      "WindowCenter": [721.0, 721.0, 722.0, 721.0, 721.0, 720.0, 721.0, 722.0, 721.0, 723.0, 724.0, 724.0, 722.0, 721.0, 721.0, 721.0, 721.0, 722.0, 721.0, 720.0, 720.0, 721.0, 721.0, 720.0, 721.0, 721.0, 722.0, 721.0, 721.0, 721.0, 722.0, 721.0, 720.0, 720.0, 720.0, 720.0, 721.0, 721.0, 720.0, 720.0, 720.0, 721.0, 721.0, 721.0, 720.0, 721.0, 720.0, 721.0, 721.0, 721.0, 721.0, 721.0, 721.0, 720.0, 720.0, 720.0, 720.0, 721.0, 721.0, 719.0, 719.0, 722.0, 722.0, 720.0, 720.0, 720.0, 722.0, 721.0, 720.0, 721.0, 722.0, 721.0, 721.0, 721.0, 721.0, 721.0, 721.0, 720.0, 721.0, 721.0, 722.0, 721.0, 721.0, 721.0, 721.0, 720.0, 720.0, 720.0, 721.0, 721.0, 721.0, 720.0, 720.0, 721.0, 721.0, 722.0, 723.0, 723.0, 722.0, 721.0, 722.0, 721.0, 722.0, 722.0, 720.0, 721.0, 721.0, 720.0, 720.0, 720.0, 721.0, 720.0, 720.0, 721.0, 720.0, 720.0, 720.0, 721.0, 722.0, 722.0, 721.0, 721.0, 721.0, 721.0, 721.0, 721.0, 721.0, 720.0, 720.0, 720.0, 720.0, 720.0, 721.0, 720.0, 720.0, 721.0, 721.0, 721.0, 722.0, 721.0, 720.0, 720.0, 722.0, 722.0, 722.0, 721.0, 721.0, 721.0, 721.0, 721.0, 721.0, 721.0, 720.0, 721.0, 721.0, 722.0, 721.0, 722.0, 722.0, 721.0, 721.0, 720.0, 720.0, 720.0, 720.0, 720.0, 721.0, 720.0, 721.0, 721.0, 721.0, 721.0, 721.0, 720.0, 721.0, 721.0, 720.0, 720.0, 721.0, 721.0, 721.0, 722.0, 721.0, 720.0, 720.0, 721.0, 721.0, 720.0, 721.0, 721.0, 720.0, 720.0, 721.0, 720.0, 722.0, 723.0, 723.0, 721.0, 721.0, 720.0, 719.0, 720.0, 720.0, 721.0, 721.0, 720.0, 721.0, 721.0, 722.0, 722.0, 721.0, 721.0, 720.0, 721.0, 721.0, 721.0, 722.0, 722.0, 722.0, 722.0, 721.0, 721.0, 721.0, 721.0, 721.0, 721.0, 722.0, 722.0, 722.0, 721.0, 721.0, 721.0, 722.0, 722.0, 722.0, 722.0, 722.0, 723.0, 722.0, 722.0, 723.0, 722.0, 721.0, 720.0, 720.0, 721.0, 722.0, 722.0, 721.0, 721.0, 720.0, 720.0, 719.0, 720.0, 720.0, 720.0],
      "WindowWidth": [1547.0, 1548.0, 1550.0, 1548.0, 1547.0, 1546.0, 1549.0, 1549.0, 1549.0, 1552.0, 1556.0, 1555.0, 1551.0, 1547.0, 1547.0, 1548.0, 1549.0, 1549.0, 1548.0, 1545.0, 1544.0, 1546.0, 1547.0, 1546.0, 1548.0, 1548.0, 1549.0, 1547.0, 1548.0, 1549.0, 1551.0, 1548.0, 1544.0, 1544.0, 1546.0, 1545.0, 1548.0, 1547.0, 1546.0, 1545.0, 1546.0, 1547.0, 1549.0, 1548.0, 1545.0, 1547.0, 1547.0, 1547.0, 1547.0, 1548.0, 1548.0, 1548.0, 1547.0, 1545.0, 1545.0, 1546.0, 1545.0, 1548.0, 1548.0, 1543.0, 1544.0, 1550.0, 1550.0, 1546.0, 1545.0, 1546.0, 1551.0, 1549.0, 1546.0, 1547.0, 1549.0, 1548.0, 1549.0, 1548.0, 1548.0, 1547.0, 1548.0, 1546.0, 1547.0, 1548.0, 1549.0, 1547.0, 1547.0, 1547.0, 1548.0, 1546.0, 1546.0, 1544.0, 1547.0, 1548.0, 1547.0, 1545.0, 1544.0, 1547.0, 1548.0, 1549.0, 1552.0, 1553.0, 1551.0, 1548.0, 1549.0, 1549.0, 1550.0, 1550.0, 1545.0, 1547.0, 1548.0, 1546.0, 1545.0, 1545.0, 1546.0, 1545.0, 1545.0, 1547.0, 1546.0, 1545.0, 1545.0, 1547.0, 1550.0, 1549.0, 1548.0, 1547.0, 1548.0, 1547.0, 1548.0, 1547.0, 1548.0, 1546.0, 1544.0, 1546.0, 1546.0, 1546.0, 1548.0, 1546.0, 1544.0, 1546.0, 1548.0, 1548.0, 1550.0, 1548.0, 1545.0, 1545.0, 1549.0, 1550.0, 1549.0, 1547.0, 1548.0, 1548.0, 1547.0, 1547.0, 1547.0, 1547.0, 1546.0, 1548.0, 1548.0, 1549.0, 1549.0, 1550.0, 1549.0, 1547.0, 1547.0, 1545.0, 1546.0, 1545.0, 1543.0, 1545.0, 1547.0, 1545.0, 1548.0, 1547.0, 1546.0, 1547.0, 1546.0, 1546.0, 1546.0, 1547.0, 1544.0, 1546.0, 1547.0, 1547.0, 1548.0, 1550.0, 1548.0, 1546.0, 1546.0, 1548.0, 1547.0, 1545.0, 1546.0, 1547.0, 1546.0, 1545.0, 1547.0, 1546.0, 1551.0, 1554.0, 1552.0, 1548.0, 1547.0, 1546.0, 1543.0, 1546.0, 1546.0, 1547.0, 1547.0, 1546.0, 1546.0, 1547.0, 1550.0, 1549.0, 1547.0, 1547.0, 1546.0, 1548.0, 1548.0, 1548.0, 1549.0, 1550.0, 1550.0, 1549.0, 1548.0, 1548.0, 1547.0, 1547.0, 1546.0, 1548.0, 1550.0, 1550.0, 1551.0, 1549.0, 1549.0, 1549.0, 1550.0, 1549.0, 1550.0, 1551.0, 1549.0, 1551.0, 1551.0, 1549.0, 1551.0, 1551.0, 1547.0, 1545.0, 1545.0, 1547.0, 1551.0, 1551.0, 1547.0, 1546.0, 1545.0, 1545.0, 1543.0, 1544.0, 1545.0, 1545.0]
    },
    "slices": {}
  }
}