{
  "AcquisitionMatrixPE": 100,
  "AcquisitionNumber": 1,
  "AcquisitionTime": "16:39:50.995000",
  "BandwidthPerPixelPhaseEncode": 18.519,
  "BaseResolution": 100,
  "BodyPartExamined": "BRAIN",
  "ConsistencyInfo": "N4_VE11C_LATEST_20160120",
  "ConversionSoftware": "dcm2niix",
  "ConversionSoftwareVersion": "v1.0.20180622 GCC4.9.2",
  "DerivedVendorReportedEchoSpacing": 0.000539986,
  "DeviceSerialNumber": "166078",
  "DwellTime": 2.1e-06,
  "EchoTime": 0.034,
  "EchoTrainLength": 100,
  "EffectiveEchoSpacing": 0.000539986,
  "FlipAngle": 90,
  "ImageOrientationPatientDICOM": [1, 0, 0, 0, 0.999781, -0.0209424],
  "ImageType": [
    "ORIGINAL",
    "PRIMARY",
    "M",
    "ND",
    "MOSAIC"
],
  "InPlanePhaseEncodingDirectionDICOM": "COL",
  "InstitutionAddress": "Street_StreetNo_Bei_Jing_District_CN_ZIP",
  "InstitutionName": "BeiJing_Normal_University",
  "InstitutionalDepartmentName": "Department",
  "MRAcquisitionType": "2D",
  "MagneticFieldStrength": 3,
  "Manufacturer": "Siemens",
  "ManufacturersModelName": "Prisma",
  "Modality": "MR",
  "MultibandAccelerationFactor": 3,
  "PartialFourier": 1,
  "PatientPosition": "HFS",
  "PercentPhaseFOV": 100,
  "PhaseEncodingDirection": "j-",
  "PhaseEncodingSteps": 100,
  "PhaseResolution": 1,
  "PixelBandwidth": 2380,
  "ProcedureStepDescription": "BNU_P2018_64CH_Zhen.ZongLei",
  "ProtocolName": "bold_100x100_s3_2x2x2_retino_150",
  "PulseSequenceDetails": "%SiemensSeq%_ep2d_bold",
  "ReceiveCoilActiveElements": "HC1-7;NC1",
  "ReceiveCoilName": "HeadNeck_64",
  "ReconMatrixPE": 100,
  "RepetitionTime": 2,
  "SAR": 0.0766486,
  "ScanOptions": "FS",
  "ScanningSequence": "EP",
  "SequenceName": "_epfid2d1_100",
  "SequenceVariant": "SK",
  "SeriesDescription": "bold_100x100_s3_2x2x2_retino_150",
  "SeriesNumber": 17,
  "ShimSetting": [-5450, -11528, -1197, 543, 14, -244, 22, 63],
  "SliceThickness": 2,
  "SliceTiming": [1.485, 0, 0.99, 0.0825, 1.0725, 0.165, 1.155, 0.2475, 1.2375, 0.33, 1.32, 0.4125, 1.4025, 0.5775, 1.5675, 0.66, 1.65, 0.7425, 1.7325, 0.825, 1.815, 0.9075, 1.8975, 0.495, 1.485, 0, 0.99, 0.0825, 1.0725, 0.165, 1.155, 0.2475, 1.2375, 0.33, 1.32, 0.4125, 1.4025, 0.5775, 1.5675, 0.66, 1.65, 0.7425, 1.7325, 0.825, 1.815, 0.9075, 1.8975, 0.495, 1.485, 0, 0.99, 0.0825, 1.0725, 0.165, 1.155, 0.2475, 1.2375, 0.33, 1.32, 0.4125, 1.4025, 0.5775, 1.5675, 0.66, 1.65, 0.7425, 1.7325, 0.825, 1.815, 0.9075, 1.8975, 0.495],
  "SoftwareVersions": "syngo_MR_E11",
  "SpacingBetweenSlices": 2,
  "StationName": "AWP166078",
  "TaskName": "retinotopy",
  "TotalReadoutTime": 0.0534586,
  "TxRefAmp": 209.645,
  "dcmmeta_affine": [
    [-2.0, 0.0, 0.0, 100.67469787597656],
    [0.0, 1.9995613098144531, -0.04188483953475952, -82.38557434082031],
    [0.0, 0.04188483953475952, 1.9995613098144531, -38.7428092956543],
    [0.0, 0.0, 0.0, 1.0]
],
  "dcmmeta_reorient_transform": [
    [0.0, -1.0, 0.0, 99.0],
    [1.0, 0.0, 0.0, 0.0],
    [0.0, 0.0, 1.0, 0.0],
    [0.0, 0.0, 0.0, 1.0]
],
  "dcmmeta_shape": [100, 100, 72, 150],
  "dcmmeta_slice_dim": 2,
  "dcmmeta_version": 0.6,
  "global": {
    "const": {
      "AcquisitionMatrix": [100, 0, 0, 100],
      "AngioFlag": "N",
      "BitsAllocated": 16,
      "BitsStored": 12,
      "BodyPartExamined": "BRAIN",
      "Columns": 900,
      "EchoNumbers": 1,
      "EchoTime": 34.0,
      "EchoTrainLength": 100,
      "FlipAngle": 90.0,
      "HighBit": 11,
      "ImageOrientationPatient": [1.0, 0.0, 0.0, 0.0, 0.9997806834792, -0.0209424196753],
      "ImagePositionPatient": [-900.67469877005, -915.39555069341, -17.842274867905],
      "ImageType": [
        "ORIGINAL",
        "PRIMARY",
        "M",
        "ND",
        "MOSAIC"
],
      "ImagedNucleus": "1H",
      "ImagingFrequency": 123.257721,
      "InPlanePhaseEncodingDirection": "COL",
      "MRAcquisitionType": "2D",
      "MagneticFieldStrength": 3.0,
      "Manufacturer": "SIEMENS",
      "ManufacturerModelName": "Prisma",
      "Modality": "MR",
      "NumberOfAverages": 1.0,
      "NumberOfPhaseEncodingSteps": 100,
      "PercentPhaseFieldOfView": 100.0,
      "PercentSampling": 100.0,
      "PerformedProcedureStepStartTime": "144707.790000",
      "PhotometricInterpretation": "MONOCHROME2",
      "PixelBandwidth": 2380.0,
      "PixelRepresentation": 0,
      "PixelSpacing": [2.0, 2.0],
      "ProtocolName": "bold_100x100_s3_2x2x2_retino_150",
      "RepetitionTime": 2000.0,
      "Rows": 900,
      "SAR": 0.07664859823314,
      "SamplesPerPixel": 1,
      "ScanOptions": "FS",
      "ScanningSequence": "EP",
      "SequenceName": "*epfid2d1_100",
      "SequenceVariant": "SK",
      "SeriesDescription": "bold_100x100_s3_2x2x2_retino_150",
      "SeriesNumber": 17,
      "SeriesTime": "163953.885000",
      "SliceLocation": -37.00895955379,
      "SliceThickness": 2.0,
      "SmallestImagePixelValue": 0,
      "SoftwareVersions": "syngo MR E11",
      "SpacingBetweenSlices": 1.9999999965712,
      "SpecificCharacterSet": "ISO_IR 100",
      "StudyID": "1",
      "StudyTime": "144707.690000",
      "TransmitCoilName": "Body",
      "VariableFlipAngleFlag": "N",
      "WindowCenterWidthExplanation": "Algo1",
      "dBdt": 0.0},
    "slices": {}
  },
  "time": {
    "samples": {
      "AcquisitionNumber": [1, 2, 3, 4, 5, 6, 7, 8, 9, 10, 11, 12, 13, 14, 15, 16, 17, 18, 19, 20, 21, 22, 23, 24, 25, 26, 27, 28, 29, 30, 31, 32, 33, 34, 35, 36, 37, 38, 39, 40, 41, 42, 43, 44, 45, 46, 47, 48, 49, 50, 51, 52, 53, 54, 55, 56, 57, 58, 59, 60, 61, 62, 63, 64, 65, 66, 67, 68, 69, 70, 71, 72, 73, 74, 75, 76, 77, 78, 79, 80, 81, 82, 83, 84, 85, 86, 87, 88, 89, 90, 91, 92, 93, 94, 95, 96, 97, 98, 99, 100, 101, 102, 103, 104, 105, 106, 107, 108, 109, 110, 111, 112, 113, 114, 115, 116, 117, 118, 119, 120, 121, 122, 123, 124, 125, 126, 127, 128, 129, 130, 131, 132, 133, 134, 135, 136, 137, 138, 139, 140, 141, 142, 143, 144, 145, 146, 147, 148, 149, 150],
      "AcquisitionTime": ["163950.995000", "163952.995000", "163954.995000", "163956.995000", "163958.995000", "164000.995000", "164002.995000", "164004.995000", "164006.995000", "164008.995000", "164010.995000", "164012.995000", "164014.995000", "164016.995000", "164018.995000", "164020.995000", "164022.995000", "164024.995000", "164026.995000", "164028.995000", "164030.995000", "164032.995000", "164034.995000", "164036.995000", "164038.995000", "164040.995000", "164042.995000", "164044.995000", "164046.995000", "164048.995000", "164050.995000", "164052.995000", "164054.995000", "164056.995000", "164058.995000", "164100.995000", "164102.995000", "164104.995000", "164106.995000", "164108.995000", "164110.995000", "164112.995000", "164114.995000", "164116.995000", "164118.995000", "164120.995000", "164122.995000", "164124.995000", "164126.995000", "164128.995000", "164130.995000", "164132.995000", "164134.995000", "164136.995000", "164138.995000", "164140.995000", "164142.995000", "164144.995000", "164146.995000", "164148.995000", "164150.995000", "164152.995000", "164154.995000", "164156.995000", "164158.995000", "164200.995000", "164202.995000", "164204.995000", "164206.995000", "164208.995000", "164210.995000", "164212.995000", "164214.995000", "164216.995000", "164218.995000", "164220.995000", "164222.995000", "164224.995000", "164226.995000", "164228.995000", "164230.995000", "164232.995000", "164234.995000", "164236.995000", "164238.995000", "164240.995000", "164242.995000", "164244.995000", "164246.995000", "164248.995000", "164250.995000", "164252.995000", "164254.995000", "164256.995000", "164258.995000", "164300.995000", "164302.995000", "164304.995000", "164306.995000", "164308.995000", "164310.995000", "164312.995000", "164314.995000", "164316.995000", "164318.995000", "164320.995000", "164322.995000", "164324.995000", "164326.995000", "164328.995000", "164330.995000", "164332.995000", "164334.995000", "164336.995000", "164338.995000", "164340.995000", "164342.995000", "164344.995000", "164346.995000", "164348.995000", "164350.995000", "164352.995000", "164354.995000", "164356.995000", "164358.995000", "164400.995000", "164402.995000", "164404.995000", "164406.995000", "164408.995000", "164410.995000", "164412.995000", "164414.995000", "164416.995000", "164418.995000", "164420.995000", "164422.995000", "164424.995000", "164426.995000", "164428.995000", "164430.995000", "164432.995000", "164434.995000", "164436.995000", "164438.995000", "164440.995000", "164442.995000", "164444.995000", "164446.995000", "164448.995000"],
      "ContentTime": ["163953.889000", "163955.383000", "163957.383000", "163959.383000", "164000.883000", "164003.383000", "164004.884000", "164006.883000", "164009.385000", "164010.884000", "164013.383000", "164015.383000", "164017.384000", "164019.384000", "164020.884000", "164022.884000", "164025.383000", "164026.885000", "164029.384000", "164031.384000", "164033.384000", "164035.383000", "164037.384000", "164039.384000", "164041.383000", "164043.383000", "164045.385000", "164047.384000", "164049.383000", "164051.383000", "164053.383000", "164055.384000", "164056.884000", "164058.883000", "164101.384000", "164103.385000", "164105.383000", "164107.383000", "164108.883000", "164111.384000", "164113.383000", "164115.384000", "164116.883000", "164118.885000", "164121.385000", "164123.383000", "164124.883000", "164127.384000", "164129.383000", "164131.384000", "164133.384000", "164135.384000", "164137.385000", "164138.884000", "164140.884000", "164143.384000", "164145.383000", "164146.884000", "164149.384000", "164150.884000", "164152.884000", "164155.385000", "164156.885000", "164159.383000", "164201.384000", "164203.384000", "164204.883000", "164207.384000", "164209.384000", "164211.384000", "164213.385000", "164214.885000", "164217.383000", "164219.383000", "164221.384000", "164223.383000", "164225.384000", "164227.384000", "164228.885000", "164231.384000", "164233.383000", "164235.383000", "164237.383000", "164238.884000", "164240.883000", "164242.884000", "164245.384000", "164247.385000", "164249.385000", "164251.383000", "164253.384000", "164255.384000", "164257.384000", "164259.384000", "164301.384000", "164303.383000", "164304.884000", "164307.384000", "164309.383000", "164311.384000", "164313.384000", "164315.384000", "164317.383000", "164318.884000", "164321.385000", "164323.384000", "164324.884000", "164327.384000", "164328.883000", "164331.384000", "164333.384000", "164335.383000", "164337.384000", "164339.385000", "164341.385000", "164342.884000", "164345.383000", "164346.883000", "164348.884000", "164351.383000", "164353.384000", "164355.384000", "164357.385000", "164359.385000", "164401.383000", "164402.883000", "164405.383000", "164406.883000", "164409.384000", "164411.384000", "164413.383000", "164415.385000", "164416.885000", "164419.383000", "164421.384000", "164423.384000", "164425.383000", "164426.883000", "164428.884000", "164431.385000", "164433.385000", "164435.384000", "164437.384000", "164438.883000", "164441.384000", "164443.384000", "164445.383000", "164447.383000", "164449.385000", "164450.845000"],
      "InstanceCreationTime": ["163953.889000", "163955.383000", "163957.383000", "163959.383000", "164000.883000", "164003.383000", "164004.884000", "164006.883000", "164009.385000", "164010.884000", "164013.383000", "164015.383000", "164017.384000", "164019.384000", "164020.884000", "164022.884000", "164025.383000", "164026.885000", "164029.384000", "164031.384000", "164033.384000", "164035.383000", "164037.384000", "164039.384000", "164041.383000", "164043.383000", "164045.385000", "164047.384000", "164049.383000", "164051.383000", "164053.383000", "164055.384000", "164056.884000", "164058.883000", "164101.384000", "164103.385000", "164105.383000", "164107.383000", "164108.883000", "164111.384000", "164113.383000", "164115.384000", "164116.883000", "164118.885000", "164121.385000", "164123.383000", "164124.883000", "164127.384000", "164129.383000", "164131.384000", "164133.384000", "164135.384000", "164137.385000", "164138.884000", "164140.884000", "164143.384000", "164145.383000", "164146.884000", "164149.384000", "164150.884000", "164152.884000", "164155.385000", "164156.885000", "164159.383000", "164201.384000", "164203.384000", "164204.883000", "164207.384000", "164209.384000", "164211.384000", "164213.385000", "164214.885000", "164217.383000", "164219.383000", "164221.384000", "164223.383000", "164225.384000", "164227.384000", "164228.885000", "164231.384000", "164233.383000", "164235.383000", "164237.383000", "164238.884000", "164240.883000", "164242.884000", "164245.384000", "164247.385000", "164249.385000", "164251.383000", "164253.384000", "164255.384000", "164257.384000", "164259.384000", "164301.384000", "164303.383000", "164304.884000", "164307.384000", "164309.383000", "164311.384000", "164313.384000", "164315.384000", "164317.383000", "164318.884000", "164321.385000", "164323.384000", "164324.884000", "164327.384000", "164328.883000", "164331.384000", "164333.384000", "164335.383000", "164337.384000", "164339.385000", "164341.385000", "164342.884000", "164345.383000", "164346.883000", "164348.884000", "164351.383000", "164353.384000", "164355.384000", "164357.385000", "164359.385000", "164401.383000", "164402.883000", "164405.383000", "164406.883000", "164409.384000", "164411.384000", "164413.383000", "164415.385000", "164416.885000", "164419.383000", "164421.384000", "164423.384000", "164425.383000", "164426.883000", "164428.884000", "164431.385000", "164433.385000", "164435.384000", "164437.384000", "164438.883000", "164441.384000", "164443.384000", "164445.383000", "164447.383000", "164449.385000", "164450.845000"],
      "InstanceNumber": [1, 2, 3, 4, 5, 6, 7, 8, 9, 10, 11, 12, 13, 14, 15, 16, 17, 18, 19, 20, 21, 22, 23, 24, 25, 26, 27, 28, 29, 30, 31, 32, 33, 34, 35, 36, 37, 38, 39, 40, 41, 42, 43, 44, 45, 46, 47, 48, 49, 50, 51, 52, 53, 54, 55, 56, 57, 58, 59, 60, 61, 62, 63, 64, 65, 66, 67, 68, 69, 70, 71, 72, 73, 74, 75, 76, 77, 78, 79, 80, 81, 82, 83, 84, 85, 86, 87, 88, 89, 90, 91, 92, 93, 94, 95, 96, 97, 98, 99, 100, 101, 102, 103, 104, 105, 106, 107, 108, 109, 110, 111, 112, 113, 114, 115, 116, 117, 118, 119, 120, 121, 122, 123, 124, 125, 126, 127, 128, 129, 130, 131, 132, 133, 134, 135, 136, 137, 138, 139, 140, 141, 142, 143, 144, 145, 146, 147, 148, 149, 150],
      "LargestImagePixelValue": [2947, 2931, 2907, 2916, 2925, 2919, 2902, 2904, 2883, 2909, 2911, 2896, 2903, 2910, 2886, 2919, 2920, 2929, 2924, 2891, 2892, 2916, 2929, 2936, 2890, 2900, 2904, 2911, 2905, 2932, 2911, 2930, 2907, 2904, 2902, 2878, 2912, 2938, 2910, 2895, 2897, 2884, 2879, 2922, 2854, 2905, 2914, 2912, 2927, 2915, 2886, 2895, 2905, 2936, 2922, 2889, 2901, 2892, 2874, 2880, 2943, 2912, 2887, 2854, 2911, 2928, 2904, 2924, 2881, 2918, 2900, 2886, 2866, 2919, 2898, 2930, 2900, 2919, 2934, 2887, 2911, 2927, 2922, 2951, 2917, 2916, 2892, 2914, 2914, 2897, 2912, 2900, 2914, 2895, 2892, 2916, 2888, 2937, 2913, 2898, 2921, 2900, 2903, 2932, 2844, 2901, 2930, 2879, 2886, 2915, 2890, 2906, 2907, 2892, 2933, 2880, 2865, 2905, 2913, 2881, 2908, 2946, 2911, 2895, 2926, 2903, 2908, 2913, 2935, 2899, 2902, 2899, 2925, 2931, 2890, 2918, 2912, 2888, 2872, 2890, 2891, 2923, 2927, 2925, 2922, 2903, 2916, 2901, 2887, 2925],
      "WindowCenter": [761.0, 761.0, 760.0, 760.0, 759.0, 759.0, 760.0, 760.0, 759.0, 759.0, 759.0, 760.0, 760.0, 760.0, 760.0, 760.0, 760.0, 760.0, 760.0, 760.0, 760.0, 760.0, 760.0, 760.0, 760.0, 759.0, 759.0, 759.0, 759.0, 759.0, 759.0, 759.0, 759.0, 761.0, 761.0, 760.0, 759.0, 759.0, 760.0, 759.0, 759.0, 759.0, 759.0, 759.0, 759.0, 760.0, 760.0, 759.0, 759.0, 760.0, 760.0, 760.0, 760.0, 759.0, 759.0, 760.0, 761.0, 761.0, 760.0, 759.0, 759.0, 758.0, 758.0, 758.0, 759.0, 759.0, 760.0, 760.0, 760.0, 760.0, 760.0, 760.0, 760.0, 760.0, 759.0, 759.0, 759.0, 759.0, 760.0, 760.0, 760.0, 760.0, 759.0, 759.0, 759.0, 759.0, 759.0, 759.0, 760.0, 760.0, 760.0, 760.0, 760.0, 760.0, 760.0, 760.0, 760.0, 760.0, 760.0, 759.0, 759.0, 759.0, 759.0, 760.0, 759.0, 759.0, 760.0, 760.0, 760.0, 760.0, 760.0, 760.0, 760.0, 760.0, 760.0, 759.0, 759.0, 760.0, 760.0, 760.0, 760.0, 760.0, 760.0, 760.0, 759.0, 759.0, 758.0, 759.0, 759.0, 759.0, 760.0, 759.0, 759.0, 759.0, 758.0, 759.0, 760.0, 760.0, 760.0, 760.0, 759.0, 759.0, 759.0, 759.0, 759.0, 759.0, 760.0, 760.0, 760.0, 760.0],
      "WindowWidth": [1642.0, 1642.0, 1639.0, 1638.0, 1636.0, 1636.0, 1637.0, 1637.0, 1635.0, 1634.0, 1637.0, 1638.0, 1638.0, 1638.0, 1637.0, 1637.0, 1637.0, 1638.0, 1639.0, 1638.0, 1638.0, 1639.0, 1639.0, 1638.0, 1637.0, 1636.0, 1636.0, 1636.0, 1636.0, 1636.0, 1634.0, 1634.0, 1637.0, 1640.0, 1641.0, 1638.0, 1637.0, 1636.0, 1637.0, 1636.0, 1637.0, 1636.0, 1637.0, 1637.0, 1637.0, 1638.0, 1637.0, 1636.0, 1636.0, 1637.0, 1639.0, 1640.0, 1638.0, 1637.0, 1637.0, 1638.0, 1640.0, 1641.0, 1638.0, 1635.0, 1635.0, 1633.0, 1633.0, 1634.0, 1635.0, 1635.0, 1638.0, 1639.0, 1638.0, 1640.0, 1639.0, 1639.0, 1639.0, 1638.0, 1636.0, 1636.0, 1635.0, 1636.0, 1639.0, 1637.0, 1638.0, 1637.0, 1637.0, 1636.0, 1635.0, 1636.0, 1635.0, 1636.0, 1638.0, 1639.0, 1639.0, 1637.0, 1638.0, 1638.0, 1638.0, 1638.0, 1638.0, 1639.0, 1639.0, 1636.0, 1635.0, 1637.0, 1637.0, 1637.0, 1635.0, 1637.0, 1639.0, 1638.0, 1637.0, 1638.0, 1639.0, 1639.0, 1639.0, 1639.0, 1638.0, 1637.0, 1636.0, 1637.0, 1639.0, 1638.0, 1639.0, 1639.0, 1638.0, 1638.0, 1637.0, 1635.0, 1634.0, 1635.0, 1636.0, 1636.0, 1637.0, 1636.0, 1635.0, 1634.0, 1634.0, 1635.0, 1638.0, 1639.0, 1640.0, 1640.0, 1637.0, 1636.0, 1636.0, 1636.0, 1635.0, 1635.0, 1637.0, 1639.0, 1639.0, 1638.0]
    },
    "slices": {}
  }
}