{
 "AcquisitionMatrixPE": 100,
 "AcquisitionNumber": 1,
 "AcquisitionTime": "15:39:39.290000",
 "BandwidthPerPixelPhaseEncode": 18.519,
 "BaseResolution": 100,
 "BodyPartExamined": "BRAIN",
 "ConsistencyInfo": "N4_VE11C_LATEST_20160120",
 "ConversionSoftware": "dcm2niix",
 "ConversionSoftwareVersion": "v1.0.20180622 GCC4.9.2",
 "DerivedVendorReportedEchoSpacing": 0.000539986,
 "DeviceSerialNumber": "166078",
 "DwellTime": 2.1e-06,
 "EchoTime": 0.034,
 "EchoTrainLength": 100,
 "EffectiveEchoSpacing": 0.000539986,
 "FlipAngle": 90,
 "ImageOrientationPatientDICOM": [
  0.999864,
  -0.0133867,
  0.00958516,
  0.0139616,
  0.997937,
  -0.0626628
 ],
 "ImageType": [
  "ORIGINAL",
  "PRIMARY",
  "M",
  "ND",
  "MOSAIC"
 ],
 "InPlanePhaseEncodingDirectionDICOM": "COL",
 "InstitutionAddress": "Street_StreetNo_Bei_Jing_District_CN_ZIP",
 "InstitutionName": "BeiJing_Normal_University",
 "InstitutionalDepartmentName": "Department",
 "MRAcquisitionType": "2D",
 "MagneticFieldStrength": 3,
 "Manufacturer": "Siemens",
 "ManufacturersModelName": "Prisma",
 "Modality": "MR",
 "MultibandAccelerationFactor": 3,
 "PartialFourier": 1,
 "PatientPosition": "HFS",
 "PercentPhaseFOV": 100,
 "PhaseEncodingDirection": "j-",
 "PhaseEncodingSteps": 100,
 "PhaseResolution": 1,
 "PixelBandwidth": 2380,
 "ProcedureStepDescription": "BNU_P2018_64CH_Zhen.ZongLei",
 "ProtocolName": "bold_100x100_s3_2x2x2_retino_150",
 "PulseSequenceDetails": "%SiemensSeq%_ep2d_bold",
 "ReceiveCoilActiveElements": "HC1-7;NC1",
 "ReceiveCoilName": "HeadNeck_64",
 "ReconMatrixPE": 100,
 "RepetitionTime": 2,
 "SAR": 0.0722816,
 "ScanOptions": "FS",
 "ScanningSequence": "EP",
 "SequenceName": "_epfid2d1_100",
 "SequenceVariant": "SK",
 "SeriesDescription": "bold_100x100_s3_2x2x2_retino_150",
 "SeriesNumber": 11,
 "ShimSetting": [
  -5459,
  -11506,
  -1280,
  608,
  -4,
  -239,
  -16,
  57
 ],
 "SliceThickness": 2,
 "SliceTiming": [
  1.485,
  0,
  0.99,
  0.0825,
  1.0725,
  0.165,
  1.155,
  0.2475,
  1.2375,
  0.33,
  1.32,
  0.4125,
  1.4025,
  0.5775,
  1.5675,
  0.66,
  1.65,
  0.7425,
  1.7325,
  0.825,
  1.815,
  0.9075,
  1.8975,
  0.495,
  1.485,
  0,
  0.99,
  0.0825,
  1.0725,
  0.165,
  1.155,
  0.2475,
  1.2375,
  0.33,
  1.32,
  0.4125,
  1.4025,
  0.5775,
  1.5675,
  0.66,
  1.65,
  0.7425,
  1.7325,
  0.825,
  1.815,
  0.9075,
  1.8975,
  0.495,
  1.485,
  0,
  0.99,
  0.0825,
  1.0725,
  0.165,
  1.155,
  0.2475,
  1.2375,
  0.33,
  1.32,
  0.4125,
  1.4025,
  0.5775,
  1.5675,
  0.66,
  1.65,
  0.7425,
  1.7325,
  0.825,
  1.815,
  0.9075,
  1.8975,
  0.495
 ],
 "SoftwareVersions": "syngo_MR_E11",
 "SpacingBetweenSlices": 2,
 "StationName": "AWP166078",
 "TaskName": "prf",
 "TotalReadoutTime": 0.0534586,
 "TxRefAmp": 210.95,
 "dcmmeta_affine": [
  [
   -1.9997289180755615,
   0.027923252433538437,
   0.01745307445526123,
   97.99861907958984
  ],
  [
   0.02677343226969242,
   1.9958741664886475,
   -0.12557625770568848,
   -79.12895965576172
  ],
  [
   0.01917031966149807,
   0.12532559037208557,
   1.995977520942688,
   -77.33649444580078
  ],
  [
   0.0,
   0.0,
   0.0,
   1.0
  ]
 ],
 "dcmmeta_reorient_transform": [
  [
   0.0,
   -1.0,
   0.0,
   99.0
  ],
  [
   1.0,
   0.0,
   0.0,
   0.0
  ],
  [
   0.0,
   0.0,
   1.0,
   0.0
  ],
  [
   0.0,
   0.0,
   0.0,
   1.0
  ]
 ],
 "dcmmeta_shape": [
  100,
  100,
  72,
  150
 ],
 "dcmmeta_slice_dim": 2,
 "dcmmeta_version": 0.6,
 "global": {
  "const": {
   "AcquisitionMatrix": [
    100,
    0,
    0,
    100
   ],
   "AngioFlag": "N",
   "BitsAllocated": 16,
   "BitsStored": 12,
   "BodyPartExamined": "BRAIN",
   "Columns": 900,
   "EchoNumbers": 1,
   "EchoTime": 34.0,
   "EchoTrainLength": 100,
   "FlipAngle": 90.0,
   "HighBit": 11,
   "ImageOrientationPatient": [
    0.99986445108199,
    -0.0133867164992,
    0.00958515956505,
    0.01396162637604,
    0.99793709563415,
    -0.0626627971465
   ],
   "ImagePositionPatient": [
    -911.82388568827,
    -906.10289050738,
    -22.467148576603
   ],
   "ImageType": [
    "ORIGINAL",
    "PRIMARY",
    "M",
    "ND",
    "MOSAIC"
   ],
   "ImagedNucleus": "1H",
   "ImagingFrequency": 123.257763,
   "InPlanePhaseEncodingDirection": "COL",
   "MRAcquisitionType": "2D",
   "MagneticFieldStrength": 3.0,
   "Manufacturer": "SIEMENS",
   "ManufacturerModelName": "Prisma",
   "Modality": "MR",
   "NumberOfAverages": 1.0,
   "NumberOfPhaseEncodingSteps": 100,
   "PercentPhaseFieldOfView": 100.0,
   "PercentSampling": 100.0,
   "PerformedProcedureStepStartTime": "145752.075000",
   "PhotometricInterpretation": "MONOCHROME2",
   "PixelBandwidth": 2380.0,
   "PixelRepresentation": 0,
   "PixelSpacing": [
    2.0,
    2.0
   ],
   "ProtocolName": "bold_100x100_s3_2x2x2_retino_150",
   "RepetitionTime": 2000.0,
   "Rows": 900,
   "SAR": 0.07228158101174,
   "SamplesPerPixel": 1,
   "ScanOptions": "FS",
   "ScanningSequence": "EP",
   "SequenceName": "*epfid2d1_100",
   "SequenceVariant": "SK",
   "SeriesDescription": "bold_100x100_s3_2x2x2_retino_150",
   "SeriesNumber": 11,
   "SeriesTime": "153941.626000",
   "SliceLocation": -71.357399932637,
   "SliceThickness": 2.0,
   "SmallestImagePixelValue": 0,
   "SoftwareVersions": "syngo MR E11",
   "SpacingBetweenSlices": 2.0000000292461,
   "SpecificCharacterSet": "ISO_IR 100",
   "StudyID": "1",
   "StudyTime": "145751.984000",
   "TransmitCoilName": "Body",
   "VariableFlipAngleFlag": "N",
   "WindowCenterWidthExplanation": "Algo1",
   "dBdt": 0.0
  },
  "slices": {}
 },
 "time": {
  "samples": {
   "AcquisitionNumber": [
    1,
    2,
    3,
    4,
    5,
    6,
    7,
    8,
    9,
    10,
    11,
    12,
    13,
    14,
    15,
    16,
    17,
    18,
    19,
    20,
    21,
    22,
    23,
    24,
    25,
    26,
    27,
    28,
    29,
    30,
    31,
    32,
    33,
    34,
    35,
    36,
    37,
    38,
    39,
    40,
    41,
    42,
    43,
    44,
    45,
    46,
    47,
    48,
    49,
    50,
    51,
    52,
    53,
    54,
    55,
    56,
    57,
    58,
    59,
    60,
    61,
    62,
    63,
    64,
    65,
    66,
    67,
    68,
    69,
    70,
    71,
    72,
    73,
    74,
    75,
    76,
    77,
    78,
    79,
    80,
    81,
    82,
    83,
    84,
    85,
    86,
    87,
    88,
    89,
    90,
    91,
    92,
    93,
    94,
    95,
    96,
    97,
    98,
    99,
    100,
    101,
    102,
    103,
    104,
    105,
    106,
    107,
    108,
    109,
    110,
    111,
    112,
    113,
    114,
    115,
    116,
    117,
    118,
    119,
    120,
    121,
    122,
    123,
    124,
    125,
    126,
    127,
    128,
    129,
    130,
    131,
    132,
    133,
    134,
    135,
    136,
    137,
    138,
    139,
    140,
    141,
    142,
    143,
    144,
    145,
    146,
    147,
    148,
    149,
    150
   ],
   "AcquisitionTime": [
    "153939.290000",
    "153941.290000",
    "153943.290000",
    "153945.290000",
    "153947.290000",
    "153949.290000",
    "153951.290000",
    "153953.290000",
    "153955.290000",
    "153957.290000",
    "153959.290000",
    "154001.290000",
    "154003.290000",
    "154005.290000",
    "154007.290000",
    "154009.290000",
    "154011.290000",
    "154013.290000",
    "154015.290000",
    "154017.290000",
    "154019.290000",
    "154021.290000",
    "154023.290000",
    "154025.290000",
    "154027.290000",
    "154029.290000",
    "154031.290000",
    "154033.290000",
    "154035.290000",
    "154037.290000",
    "154039.290000",
    "154041.290000",
    "154043.290000",
    "154045.290000",
    "154047.290000",
    "154049.290000",
    "154051.290000",
    "154053.290000",
    "154055.290000",
    "154057.290000",
    "154059.290000",
    "154101.290000",
    "154103.290000",
    "154105.290000",
    "154107.290000",
    "154109.290000",
    "154111.290000",
    "154113.290000",
    "154115.290000",
    "154117.290000",
    "154119.290000",
    "154121.290000",
    "154123.290000",
    "154125.290000",
    "154127.290000",
    "154129.290000",
    "154131.290000",
    "154133.290000",
    "154135.290000",
    "154137.290000",
    "154139.290000",
    "154141.290000",
    "154143.290000",
    "154145.290000",
    "154147.290000",
    "154149.290000",
    "154151.290000",
    "154153.290000",
    "154155.290000",
    "154157.290000",
    "154159.290000",
    "154201.290000",
    "154203.290000",
    "154205.290000",
    "154207.290000",
    "154209.290000",
    "154211.290000",
    "154213.290000",
    "154215.290000",
    "154217.290000",
    "154219.290000",
    "154221.290000",
    "154223.290000",
    "154225.290000",
    "154227.290000",
    "154229.290000",
    "154231.290000",
    "154233.290000",
    "154235.290000",
    "154237.290000",
    "154239.290000",
    "154241.290000",
    "154243.290000",
    "154245.290000",
    "154247.290000",
    "154249.290000",
    "154251.290000",
    "154253.290000",
    "154255.290000",
    "154257.290000",
    "154259.290000",
    "154301.290000",
    "154303.290000",
    "154305.290000",
    "154307.290000",
    "154309.290000",
    "154311.290000",
    "154313.290000",
    "154315.290000",
    "154317.290000",
    "154319.290000",
    "154321.290000",
    "154323.290000",
    "154325.290000",
    "154327.290000",
    "154329.290000",
    "154331.290000",
    "154333.290000",
    "154335.290000",
    "154337.290000",
    "154339.290000",
    "154341.290000",
    "154343.290000",
    "154345.290000",
    "154347.290000",
    "154349.290000",
    "154351.290000",
    "154353.290000",
    "154355.290000",
    "154357.290000",
    "154359.290000",
    "154401.290000",
    "154403.290000",
    "154405.290000",
    "154407.290000",
    "154409.290000",
    "154411.290000",
    "154413.290000",
    "154415.290000",
    "154417.290000",
    "154419.290000",
    "154421.290000",
    "154423.290000",
    "154425.290000",
    "154427.290000",
    "154429.290000",
    "154431.290000",
    "154433.290000",
    "154435.290000",
    "154437.290000"
   ],
   "ContentTime": [
    "153941.629000",
    "153943.125000",
    "153945.124000",
    "153947.125000",
    "153949.126000",
    "153951.126000",
    "153953.125000",
    "153955.124000",
    "153957.124000",
    "153959.125000",
    "154001.124000",
    "154003.125000",
    "154005.124000",
    "154007.125000",
    "154009.125000",
    "154011.125000",
    "154013.124000",
    "154015.125000",
    "154017.124000",
    "154019.124000",
    "154021.124000",
    "154023.124000",
    "154025.126000",
    "154027.126000",
    "154029.124000",
    "154031.125000",
    "154033.125000",
    "154035.125000",
    "154037.124000",
    "154039.124000",
    "154041.125000",
    "154043.125000",
    "154045.125000",
    "154047.124000",
    "154049.124000",
    "154051.125000",
    "154053.124000",
    "154055.124000",
    "154057.124000",
    "154059.125000",
    "154101.125000",
    "154103.126000",
    "154105.124000",
    "154107.125000",
    "154109.125000",
    "154111.125000",
    "154113.125000",
    "154115.124000",
    "154117.125000",
    "154119.125000",
    "154121.126000",
    "154123.124000",
    "154125.124000",
    "154127.124000",
    "154129.124000",
    "154131.124000",
    "154133.124000",
    "154135.125000",
    "154137.126000",
    "154139.125000",
    "154141.124000",
    "154143.125000",
    "154145.124000",
    "154147.124000",
    "154149.125000",
    "154151.126000",
    "154153.126000",
    "154155.126000",
    "154157.125000",
    "154159.124000",
    "154201.124000",
    "154203.125000",
    "154205.124000",
    "154207.124000",
    "154209.125000",
    "154211.125000",
    "154213.126000",
    "154215.124000",
    "154217.125000",
    "154219.125000",
    "154221.125000",
    "154223.124000",
    "154225.125000",
    "154227.126000",
    "154229.126000",
    "154231.125000",
    "154233.125000",
    "154235.125000",
    "154237.124000",
    "154239.125000",
    "154241.124000",
    "154243.125000",
    "154245.126000",
    "154247.125000",
    "154249.125000",
    "154251.125000",
    "154253.124000",
    "154255.125000",
    "154257.124000",
    "154259.125000",
    "154301.126000",
    "154303.126000",
    "154305.126000",
    "154307.125000",
    "154309.125000",
    "154311.125000",
    "154313.125000",
    "154315.125000",
    "154317.124000",
    "154319.126000",
    "154321.126000",
    "154323.126000",
    "154325.125000",
    "154327.125000",
    "154329.125000",
    "154331.124000",
    "154333.125000",
    "154335.125000",
    "154337.125000",
    "154339.125000",
    "154341.126000",
    "154343.125000",
    "154345.125000",
    "154347.125000",
    "154349.124000",
    "154351.125000",
    "154353.125000",
    "154355.125000",
    "154357.126000",
    "154359.125000",
    "154401.124000",
    "154403.125000",
    "154405.125000",
    "154407.125000",
    "154409.125000",
    "154411.125000",
    "154413.126000",
    "154415.126000",
    "154417.124000",
    "154419.125000",
    "154421.124000",
    "154423.125000",
    "154425.125000",
    "154427.125000",
    "154429.125000",
    "154431.125000",
    "154433.125000",
    "154435.125000",
    "154437.125000",
    "154438.889000"
   ],
   "InstanceCreationTime": [
    "153941.629000",
    "153943.125000",
    "153945.124000",
    "153947.125000",
    "153949.126000",
    "153951.126000",
    "153953.125000",
    "153955.124000",
    "153957.124000",
    "153959.125000",
    "154001.124000",
    "154003.125000",
    "154005.124000",
    "154007.125000",
    "154009.125000",
    "154011.125000",
    "154013.124000",
    "154015.125000",
    "154017.124000",
    "154019.124000",
    "154021.124000",
    "154023.124000",
    "154025.126000",
    "154027.126000",
    "154029.124000",
    "154031.125000",
    "154033.125000",
    "154035.125000",
    "154037.124000",
    "154039.124000",
    "154041.125000",
    "154043.125000",
    "154045.125000",
    "154047.124000",
    "154049.124000",
    "154051.125000",
    "154053.124000",
    "154055.124000",
    "154057.124000",
    "154059.125000",
    "154101.125000",
    "154103.126000",
    "154105.124000",
    "154107.125000",
    "154109.125000",
    "154111.125000",
    "154113.125000",
    "154115.124000",
    "154117.125000",
    "154119.125000",
    "154121.126000",
    "154123.124000",
    "154125.124000",
    "154127.124000",
    "154129.124000",
    "154131.124000",
    "154133.124000",
    "154135.125000",
    "154137.126000",
    "154139.125000",
    "154141.124000",
    "154143.125000",
    "154145.124000",
    "154147.124000",
    "154149.125000",
    "154151.126000",
    "154153.126000",
    "154155.126000",
    "154157.125000",
    "154159.124000",
    "154201.124000",
    "154203.125000",
    "154205.124000",
    "154207.124000",
    "154209.125000",
    "154211.125000",
    "154213.126000",
    "154215.124000",
    "154217.125000",
    "154219.125000",
    "154221.125000",
    "154223.124000",
    "154225.125000",
    "154227.126000",
    "154229.126000",
    "154231.125000",
    "154233.125000",
    "154235.125000",
    "154237.124000",
    "154239.125000",
    "154241.124000",
    "154243.125000",
    "154245.126000",
    "154247.125000",
    "154249.125000",
    "154251.125000",
    "154253.124000",
    "154255.125000",
    "154257.124000",
    "154259.125000",
    "154301.126000",
    "154303.126000",
    "154305.126000",
    "154307.125000",
    "154309.125000",
    "154311.125000",
    "154313.125000",
    "154315.125000",
    "154317.124000",
    "154319.126000",
    "154321.126000",
    "154323.126000",
    "154325.125000",
    "154327.125000",
    "154329.125000",
    "154331.124000",
    "154333.125000",
    "154335.125000",
    "154337.125000",
    "154339.125000",
    "154341.126000",
    "154343.125000",
    "154345.125000",
    "154347.125000",
    "154349.124000",
    "154351.125000",
    "154353.125000",
    "154355.125000",
    "154357.126000",
    "154359.125000",
    "154401.124000",
    "154403.125000",
    "154405.125000",
    "154407.125000",
    "154409.125000",
    "154411.125000",
    "154413.126000",
    "154415.126000",
    "154417.124000",
    "154419.125000",
    "154421.124000",
    "154423.125000",
    "154425.125000",
    "154427.125000",
    "154429.125000",
    "154431.125000",
    "154433.125000",
    "154435.125000",
    "154437.125000",
    "154438.889000"
   ],
   "InstanceNumber": [
    1,
    2,
    3,
    4,
    5,
    6,
    7,
    8,
    9,
    10,
    11,
    12,
    13,
    14,
    15,
    16,
    17,
    18,
    19,
    20,
    21,
    22,
    23,
    24,
    25,
    26,
    27,
    28,
    29,
    30,
    31,
    32,
    33,
    34,
    35,
    36,
    37,
    38,
    39,
    40,
    41,
    42,
    43,
    44,
    45,
    46,
    47,
    48,
    49,
    50,
    51,
    52,
    53,
    54,
    55,
    56,
    57,
    58,
    59,
    60,
    61,
    62,
    63,
    64,
    65,
    66,
    67,
    68,
    69,
    70,
    71,
    72,
    73,
    74,
    75,
    76,
    77,
    78,
    79,
    80,
    81,
    82,
    83,
    84,
    85,
    86,
    87,
    88,
    89,
    90,
    91,
    92,
    93,
    94,
    95,
    96,
    97,
    98,
    99,
    100,
    101,
    102,
    103,
    104,
    105,
    106,
    107,
    108,
    109,
    110,
    111,
    112,
    113,
    114,
    115,
    116,
    117,
    118,
    119,
    120,
    121,
    122,
    123,
    124,
    125,
    126,
    127,
    128,
    129,
    130,
    131,
    132,
    133,
    134,
    135,
    136,
    137,
    138,
    139,
    140,
    141,
    142,
    143,
    144,
    145,
    146,
    147,
    148,
    149,
    150
   ],
   "LargestImagePixelValue": [
    2417,
    2466,
    2374,
    2403,
    2337,
    2261,
    2439,
    2399,
    2331,
    2328,
    2536,
    2272,
    2327,
    2326,
    2419,
    2416,
    2512,
    2796,
    2296,
    2757,
    2502,
    2290,
    2461,
    2424,
    2437,
    2335,
    2925,
    2512,
    2435,
    2390,
    2381,
    2487,
    2246,
    2373,
    2264,
    2354,
    2228,
    2507,
    2397,
    2265,
    2471,
    2350,
    2349,
    2379,
    2427,
    2370,
    2385,
    2263,
    2396,
    2403,
    2421,
    2400,
    2399,
    2406,
    2375,
    2377,
    2333,
    2341,
    2338,
    2363,
    2351,
    2373,
    2399,
    2384,
    2781,
    2419,
    2316,
    2251,
    2381,
    2309,
    2309,
    2300,
    2321,
    2264,
    2315,
    2351,
    2354,
    2359,
    2365,
    2355,
    2237,
    2508,
    2425,
    2363,
    2346,
    2446,
    2278,
    2342,
    2335,
    2428,
    2380,
    2419,
    2380,
    2338,
    2341,
    2328,
    2359,
    2352,
    2501,
    2262,
    2246,
    2260,
    2371,
    2335,
    2532,
    2322,
    2289,
    2315,
    2323,
    2334,
    2293,
    2302,
    2256,
    2256,
    2283,
    2270,
    2314,
    2261,
    2335,
    2299,
    2367,
    2310,
    2307,
    2300,
    2256,
    2289,
    2272,
    2319,
    2276,
    2370,
    2291,
    2284,
    2556,
    2281,
    2478,
    2333,
    2354,
    2255,
    2243,
    2606,
    2276,
    2349,
    2318,
    2272,
    2419,
    2362,
    2283,
    2297,
    2355,
    2352
   ],
   "WindowCenter": [
    727.0,
    726.0,
    725.0,
    724.0,
    724.0,
    723.0,
    725.0,
    724.0,
    723.0,
    723.0,
    725.0,
    723.0,
    724.0,
    722.0,
    723.0,
    724.0,
    726.0,
    730.0,
    724.0,
    728.0,
    726.0,
    724.0,
    725.0,
    725.0,
    725.0,
    723.0,
    730.0,
    726.0,
    724.0,
    723.0,
    723.0,
    726.0,
    722.0,
    723.0,
    722.0,
    723.0,
    722.0,
    726.0,
    725.0,
    722.0,
    725.0,
    723.0,
    723.0,
    723.0,
    723.0,
    722.0,
    723.0,
    722.0,
    724.0,
    724.0,
    724.0,
    723.0,
    724.0,
    724.0,
    724.0,
    724.0,
    723.0,
    723.0,
    723.0,
    724.0,
    724.0,
    724.0,
    723.0,
    723.0,
    727.0,
    723.0,
    721.0,
    721.0,
    723.0,
    722.0,
    722.0,
    722.0,
    723.0,
    722.0,
    723.0,
    724.0,
    724.0,
    723.0,
    724.0,
    724.0,
    722.0,
    724.0,
    724.0,
    723.0,
    723.0,
    725.0,
    723.0,
    724.0,
    723.0,
    724.0,
    723.0,
    725.0,
    724.0,
    723.0,
    723.0,
    723.0,
    724.0,
    723.0,
    724.0,
    721.0,
    722.0,
    723.0,
    724.0,
    723.0,
    726.0,
    723.0,
    723.0,
    724.0,
    723.0,
    724.0,
    723.0,
    723.0,
    723.0,
    724.0,
    723.0,
    722.0,
    722.0,
    722.0,
    724.0,
    724.0,
    724.0,
    723.0,
    723.0,
    723.0,
    723.0,
    724.0,
    723.0,
    723.0,
    723.0,
    725.0,
    723.0,
    723.0,
    726.0,
    723.0,
    725.0,
    724.0,
    725.0,
    724.0,
    723.0,
    727.0,
    722.0,
    722.0,
    722.0,
    723.0,
    726.0,
    724.0,
    722.0,
    721.0,
    722.0,
    723.0
   ],
   "WindowWidth": [
    1547.0,
    1545.0,
    1541.0,
    1539.0,
    1539.0,
    1537.0,
    1542.0,
    1540.0,
    1537.0,
    1536.0,
    1542.0,
    1538.0,
    1539.0,
    1535.0,
    1536.0,
    1538.0,
    1544.0,
    1553.0,
    1539.0,
    1550.0,
    1544.0,
    1539.0,
    1543.0,
    1541.0,
    1541.0,
    1538.0,
    1553.0,
    1545.0,
    1539.0,
    1536.0,
    1538.0,
    1543.0,
    1536.0,
    1537.0,
    1534.0,
    1537.0,
    1536.0,
    1545.0,
    1541.0,
    1536.0,
    1541.0,
    1538.0,
    1536.0,
    1537.0,
    1536.0,
    1535.0,
    1536.0,
    1534.0,
    1540.0,
    1540.0,
    1539.0,
    1537.0,
    1538.0,
    1540.0,
    1539.0,
    1538.0,
    1536.0,
    1536.0,
    1537.0,
    1540.0,
    1540.0,
    1538.0,
    1537.0,
    1536.0,
    1545.0,
    1536.0,
    1533.0,
    1531.0,
    1537.0,
    1535.0,
    1534.0,
    1535.0,
    1536.0,
    1534.0,
    1537.0,
    1540.0,
    1539.0,
    1538.0,
    1540.0,
    1539.0,
    1534.0,
    1540.0,
    1538.0,
    1538.0,
    1537.0,
    1541.0,
    1538.0,
    1540.0,
    1537.0,
    1538.0,
    1537.0,
    1541.0,
    1540.0,
    1537.0,
    1536.0,
    1537.0,
    1539.0,
    1537.0,
    1538.0,
    1532.0,
    1534.0,
    1537.0,
    1540.0,
    1537.0,
    1543.0,
    1538.0,
    1537.0,
    1539.0,
    1538.0,
    1539.0,
    1537.0,
    1537.0,
    1537.0,
    1539.0,
    1537.0,
    1535.0,
    1535.0,
    1535.0,
    1541.0,
    1540.0,
    1539.0,
    1537.0,
    1536.0,
    1537.0,
    1538.0,
    1539.0,
    1538.0,
    1538.0,
    1538.0,
    1541.0,
    1538.0,
    1537.0,
    1544.0,
    1536.0,
    1542.0,
    1538.0,
    1541.0,
    1539.0,
    1537.0,
    1546.0,
    1535.0,
    1535.0,
    1536.0,
    1537.0,
    1544.0,
    1540.0,
    1535.0,
    1533.0,
    1534.0,
    1536.0
   ]
  },
  "slices": {}
 }
}