{
  "AcquisitionMatrixPE": 100,
  "AcquisitionNumber": 1,
  "AcquisitionTime": "15:19:11.345000",
  "BandwidthPerPixelPhaseEncode": 18.519,
  "BaseResolution": 100,
  "BodyPartExamined": "BRAIN",
  "ConsistencyInfo": "N4_VE11C_LATEST_20160120",
  "ConversionSoftware": "dcm2niix",
  "ConversionSoftwareVersion": "v1.0.20180622 GCC4.9.2",
  "DerivedVendorReportedEchoSpacing": 0.000539986,
  "DeviceSerialNumber": "166078",
  "DwellTime": 2.1e-06,
  "EchoTime": 0.034,
  "EchoTrainLength": 100,
  "EffectiveEchoSpacing": 0.000539986,
  "FlipAngle": 90,
  "ImageOrientationPatientDICOM": [0.999864, -0.0133867, 0.00958516, 0.0139616, 0.997937, -0.0626628],
  "ImageType": [
    "ORIGINAL",
    "PRIMARY",
    "M",
    "ND",
    "MOSAIC"
],
  "InPlanePhaseEncodingDirectionDICOM": "COL",
  "InstitutionAddress": "Street_StreetNo_Bei_Jing_District_CN_ZIP",
  "InstitutionName": "BeiJing_Normal_University",
  "InstitutionalDepartmentName": "Department",
  "MRAcquisitionType": "2D",
  "MagneticFieldStrength": 3,
  "Manufacturer": "Siemens",
  "ManufacturersModelName": "Prisma",
  "Modality": "MR",
  "MultibandAccelerationFactor": 3,
  "PartialFourier": 1,
  "PatientPosition": "HFS",
  "PercentPhaseFOV": 100,
  "PhaseEncodingDirection": "j-",
  "PhaseEncodingSteps": 100,
  "PhaseResolution": 1,
  "PixelBandwidth": 2380,
  "ProcedureStepDescription": "BNU_P2018_64CH_Zhen.ZongLei",
  "ProtocolName": "bold_100x100_s3_2x2x2_retino_150",
  "PulseSequenceDetails": "%SiemensSeq%_ep2d_bold",
  "ReceiveCoilActiveElements": "HC1-7;NC1",
  "ReceiveCoilName": "HeadNeck_64",
  "ReconMatrixPE": 100,
  "RepetitionTime": 2,
  "SAR": 0.0722816,
  "ScanOptions": "FS",
  "ScanningSequence": "EP",
  "SequenceName": "_epfid2d1_100",
  "SequenceVariant": "SK",
  "SeriesDescription": "bold_100x100_s3_2x2x2_retino_150",
  "SeriesNumber": 6,
  "ShimSetting": [-5459, -11506, -1280, 608, -4, -239, -16, 57],
  "SliceThickness": 2,
  "SliceTiming": [1.485, 0, 0.99, 0.0825, 1.0725, 0.165, 1.155, 0.2475, 1.2375, 0.33, 1.32, 0.4125, 1.4025, 0.5775, 1.5675, 0.66, 1.65, 0.7425, 1.7325, 0.825, 1.815, 0.9075, 1.8975, 0.495, 1.485, 0, 0.99, 0.0825, 1.0725, 0.165, 1.155, 0.2475, 1.2375, 0.33, 1.32, 0.4125, 1.4025, 0.5775, 1.5675, 0.66, 1.65, 0.7425, 1.7325, 0.825, 1.815, 0.9075, 1.8975, 0.495, 1.485, 0, 0.99, 0.0825, 1.0725, 0.165, 1.155, 0.2475, 1.2375, 0.33, 1.32, 0.4125, 1.4025, 0.5775, 1.5675, 0.66, 1.65, 0.7425, 1.7325, 0.825, 1.815, 0.9075, 1.8975, 0.495],
  "SoftwareVersions": "syngo_MR_E11",
  "SpacingBetweenSlices": 2,
  "StationName": "AWP166078",
  "TaskName": "retinotopy",
  "TotalReadoutTime": 0.0534586,
  "TxRefAmp": 210.95,
  "dcmmeta_affine": [
    [-1.9997289180755615, 0.027923252433538437, 0.01745307445526123, 97.99861907958984],
    [0.02677343226969242, 1.9958741664886475, -0.12557625770568848, -79.12895965576172],
    [0.01917031966149807, 0.12532559037208557, 1.995977520942688, -77.33649444580078],
    [0.0, 0.0, 0.0, 1.0]
],
  "dcmmeta_reorient_transform": [
    [0.0, -1.0, 0.0, 99.0],
    [1.0, 0.0, 0.0, 0.0],
    [0.0, 0.0, 1.0, 0.0],
    [0.0, 0.0, 0.0, 1.0]
],
  "dcmmeta_shape": [100, 100, 72, 150],
  "dcmmeta_slice_dim": 2,
  "dcmmeta_version": 0.6,
  "global": {
    "const": {
      "AcquisitionMatrix": [100, 0, 0, 100],
      "AngioFlag": "N",
      "BitsAllocated": 16,
      "BitsStored": 12,
      "BodyPartExamined": "BRAIN",
      "Columns": 900,
      "EchoNumbers": 1,
      "EchoTime": 34.0,
      "EchoTrainLength": 100,
      "FlipAngle": 90.0,
      "HighBit": 11,
      "ImageOrientationPatient": [0.99986445108199, -0.0133867164992, 0.00958515956505, 0.01396162637604, 0.99793709563415, -0.0626627971465],
      "ImagePositionPatient": [-911.82388568827, -906.10289050738, -22.467148576603],
      "ImageType": [
        "ORIGINAL",
        "PRIMARY",
        "M",
        "ND",
        "MOSAIC"
],
      "ImagedNucleus": "1H",
      "ImagingFrequency": 123.257767,
      "InPlanePhaseEncodingDirection": "COL",
      "MRAcquisitionType": "2D",
      "MagneticFieldStrength": 3.0,
      "Manufacturer": "SIEMENS",
      "ManufacturerModelName": "Prisma",
      "Modality": "MR",
      "NumberOfAverages": 1.0,
      "NumberOfPhaseEncodingSteps": 100,
      "PercentPhaseFieldOfView": 100.0,
      "PercentSampling": 100.0,
      "PerformedProcedureStepStartTime": "145752.075000",
      "PhotometricInterpretation": "MONOCHROME2",
      "PixelBandwidth": 2380.0,
      "PixelRepresentation": 0,
      "PixelSpacing": [2.0, 2.0],
      "ProtocolName": "bold_100x100_s3_2x2x2_retino_150",
      "RepetitionTime": 2000.0,
      "Rows": 900,
      "SAR": 0.07228158101174,
      "SamplesPerPixel": 1,
      "ScanOptions": "FS",
      "ScanningSequence": "EP",
      "SequenceName": "*epfid2d1_100",
      "SequenceVariant": "SK",
      "SeriesDescription": "bold_100x100_s3_2x2x2_retino_150",
      "SeriesNumber": 6,
      "SeriesTime": "151913.462000",
      "SliceLocation": -71.357399932637,
      "SliceThickness": 2.0,
      "SmallestImagePixelValue": 0,
      "SoftwareVersions": "syngo MR E11",
      "SpacingBetweenSlices": 2.0000000292461,
      "SpecificCharacterSet": "ISO_IR 100",
      "StudyID": "1",
      "StudyTime": "145751.984000",
      "TransmitCoilName": "Body",
      "VariableFlipAngleFlag": "N",
      "WindowCenterWidthExplanation": "Algo1",
      "dBdt": 0.0},
    "slices": {}
  },
  "time": {
    "samples": {
      "AcquisitionNumber": [1, 2, 3, 4, 5, 6, 7, 8, 9, 10, 11, 12, 13, 14, 15, 16, 17, 18, 19, 20, 21, 22, 23, 24, 25, 26, 27, 28, 29, 30, 31, 32, 33, 34, 35, 36, 37, 38, 39, 40, 41, 42, 43, 44, 45, 46, 47, 48, 49, 50, 51, 52, 53, 54, 55, 56, 57, 58, 59, 60, 61, 62, 63, 64, 65, 66, 67, 68, 69, 70, 71, 72, 73, 74, 75, 76, 77, 78, 79, 80, 81, 82, 83, 84, 85, 86, 87, 88, 89, 90, 91, 92, 93, 94, 95, 96, 97, 98, 99, 100, 101, 102, 103, 104, 105, 106, 107, 108, 109, 110, 111, 112, 113, 114, 115, 116, 117, 118, 119, 120, 121, 122, 123, 124, 125, 126, 127, 128, 129, 130, 131, 132, 133, 134, 135, 136, 137, 138, 139, 140, 141, 142, 143, 144, 145, 146, 147, 148, 149, 150],
      "AcquisitionTime": ["151911.345000", "151913.345000", "151915.345000", "151917.345000", "151919.345000", "151921.345000", "151923.345000", "151925.345000", "151927.345000", "151929.345000", "151931.345000", "151933.345000", "151935.345000", "151937.345000", "151939.345000", "151941.345000", "151943.345000", "151945.345000", "151947.345000", "151949.345000", "151951.345000", "151953.345000", "151955.345000", "151957.345000", "151959.345000", "152001.345000", "152003.345000", "152005.345000", "152007.345000", "152009.345000", "152011.345000", "152013.345000", "152015.345000", "152017.345000", "152019.345000", "152021.345000", "152023.345000", "152025.345000", "152027.345000", "152029.345000", "152031.345000", "152033.345000", "152035.345000", "152037.345000", "152039.345000", "152041.345000", "152043.345000", "152045.345000", "152047.345000", "152049.345000", "152051.345000", "152053.345000", "152055.345000", "152057.345000", "152059.345000", "152101.345000", "152103.345000", "152105.345000", "152107.345000", "152109.345000", "152111.345000", "152113.345000", "152115.345000", "152117.345000", "152119.345000", "152121.345000", "152123.345000", "152125.345000", "152127.345000", "152129.345000", "152131.345000", "152133.345000", "152135.345000", "152137.345000", "152139.345000", "152141.345000", "152143.345000", "152145.345000", "152147.345000", "152149.345000", "152151.345000", "152153.345000", "152155.345000", "152157.345000", "152159.345000", "152201.345000", "152203.345000", "152205.345000", "152207.345000", "152209.345000", "152211.345000", "152213.345000", "152215.345000", "152217.345000", "152219.345000", "152221.345000", "152223.345000", "152225.345000", "152227.345000", "152229.345000", "152231.345000", "152233.345000", "152235.345000", "152237.345000", "152239.345000", "152241.345000", "152243.345000", "152245.345000", "152247.345000", "152249.345000", "152251.345000", "152253.345000", "152255.345000", "152257.345000", "152259.345000", "152301.345000", "152303.345000", "152305.345000", "152307.345000", "152309.345000", "152311.345000", "152313.345000", "152315.345000", "152317.345000", "152319.345000", "152321.345000", "152323.345000", "152325.345000", "152327.345000", "152329.345000", "152331.345000", "152333.345000", "152335.345000", "152337.345000", "152339.345000", "152341.345000", "152343.345000", "152345.345000", "152347.345000", "152349.345000", "152351.345000", "152353.345000", "152355.345000", "152357.345000", "152359.345000", "152401.345000", "152403.345000", "152405.345000", "152407.345000", "152409.345000"],
      "ContentTime": ["151913.466000", "151914.961000", "151916.961000", "151918.961000", "151920.962000", "151922.961000", "151924.962000", "151926.962000", "151928.963000", "151930.961000", "151932.962000", "151934.961000", "151936.962000", "151938.962000", "151940.962000", "151942.962000", "151944.963000", "151946.961000", "151948.961000", "151950.962000", "151952.962000", "151954.962000", "151956.961000", "151958.961000", "152000.962000", "152002.962000", "152004.962000", "152006.961000", "152008.962000", "152010.961000", "152012.961000", "152014.961000", "152016.962000", "152018.963000", "152020.963000", "152022.961000", "152024.962000", "152026.962000", "152028.961000", "152030.962000", "152032.961000", "152034.962000", "152036.963000", "152038.962000", "152040.962000", "152042.962000", "152044.962000", "152046.961000", "152048.962000", "152050.962000", "152052.962000", "152054.963000", "152056.962000", "152058.962000", "152100.961000", "152102.961000", "152104.961000", "152106.962000", "152108.961000", "152110.962000", "152112.962000", "152114.961000", "152116.962000", "152118.962000", "152120.961000", "152122.961000", "152124.962000", "152126.961000", "152128.963000", "152130.962000", "152132.961000", "152134.962000", "152136.962000", "152138.961000", "152140.962000", "152142.962000", "152144.963000", "152146.962000", "152148.963000", "152150.961000", "152152.961000", "152154.961000", "152156.961000", "152158.962000", "152200.962000", "152202.962000", "152204.962000", "152206.961000", "152208.961000", "152210.961000", "152212.961000", "152214.962000", "152216.961000", "152218.962000", "152220.962000", "152222.962000", "152224.961000", "152226.962000", "152228.962000", "152230.961000", "152232.961000", "152234.961000", "152236.962000", "152238.962000", "152240.962000", "152242.961000", "152244.961000", "152246.962000", "152248.961000", "152250.962000", "152252.962000", "152254.962000", "152256.962000", "152258.962000", "152300.962000", "152302.961000", "152304.961000", "152306.961000", "152308.961000", "152310.962000", "152312.963000", "152314.963000", "152316.961000", "152318.961000", "152320.961000", "152322.962000", "152324.962000", "152326.961000", "152328.961000", "152330.963000", "152332.962000", "152334.962000", "152336.961000", "152338.961000", "152340.962000", "152342.961000", "152344.961000", "152346.962000", "152348.962000", "152350.962000", "152352.961000", "152354.961000", "152356.961000", "152358.962000", "152400.961000", "152402.962000", "152404.962000", "152406.963000", "152408.962000", "152410.838000"],
      "InstanceCreationTime": ["151913.466000", "151914.961000", "151916.961000", "151918.961000", "151920.962000", "151922.961000", "151924.962000", "151926.962000", "151928.963000", "151930.961000", "151932.962000", "151934.961000", "151936.962000", "151938.962000", "151940.962000", "151942.962000", "151944.963000", "151946.961000", "151948.961000", "151950.962000", "151952.962000", "151954.962000", "151956.961000", "151958.961000", "152000.962000", "152002.962000", "152004.962000", "152006.961000", "152008.962000", "152010.961000", "152012.961000", "152014.961000", "152016.962000", "152018.963000", "152020.963000", "152022.961000", "152024.962000", "152026.962000", "152028.961000", "152030.962000", "152032.961000", "152034.962000", "152036.963000", "152038.962000", "152040.962000", "152042.962000", "152044.962000", "152046.961000", "152048.962000", "152050.962000", "152052.962000", "152054.963000", "152056.962000", "152058.962000", "152100.961000", "152102.961000", "152104.961000", "152106.962000", "152108.961000", "152110.962000", "152112.962000", "152114.961000", "152116.962000", "152118.962000", "152120.961000", "152122.961000", "152124.962000", "152126.961000", "152128.963000", "152130.962000", "152132.961000", "152134.962000", "152136.962000", "152138.961000", "152140.962000", "152142.962000", "152144.963000", "152146.962000", "152148.963000", "152150.961000", "152152.961000", "152154.961000", "152156.961000", "152158.962000", "152200.962000", "152202.962000", "152204.962000", "152206.961000", "152208.961000", "152210.961000", "152212.961000", "152214.962000", "152216.961000", "152218.962000", "152220.962000", "152222.962000", "152224.961000", "152226.962000", "152228.962000", "152230.961000", "152232.961000", "152234.961000", "152236.962000", "152238.962000", "152240.962000", "152242.961000", "152244.961000", "152246.962000", "152248.961000", "152250.962000", "152252.962000", "152254.962000", "152256.962000", "152258.962000", "152300.962000", "152302.961000", "152304.961000", "152306.961000", "152308.961000", "152310.962000", "152312.963000", "152314.963000", "152316.961000", "152318.961000", "152320.961000", "152322.962000", "152324.962000", "152326.961000", "152328.961000", "152330.963000", "152332.962000", "152334.962000", "152336.961000", "152338.961000", "152340.962000", "152342.961000", "152344.961000", "152346.962000", "152348.962000", "152350.962000", "152352.961000", "152354.961000", "152356.961000", "152358.962000", "152400.961000", "152402.962000", "152404.962000", "152406.963000", "152408.962000", "152410.838000"],
      "InstanceNumber": [1, 2, 3, 4, 5, 6, 7, 8, 9, 10, 11, 12, 13, 14, 15, 16, 17, 18, 19, 20, 21, 22, 23, 24, 25, 26, 27, 28, 29, 30, 31, 32, 33, 34, 35, 36, 37, 38, 39, 40, 41, 42, 43, 44, 45, 46, 47, 48, 49, 50, 51, 52, 53, 54, 55, 56, 57, 58, 59, 60, 61, 62, 63, 64, 65, 66, 67, 68, 69, 70, 71, 72, 73, 74, 75, 76, 77, 78, 79, 80, 81, 82, 83, 84, 85, 86, 87, 88, 89, 90, 91, 92, 93, 94, 95, 96, 97, 98, 99, 100, 101, 102, 103, 104, 105, 106, 107, 108, 109, 110, 111, 112, 113, 114, 115, 116, 117, 118, 119, 120, 121, 122, 123, 124, 125, 126, 127, 128, 129, 130, 131, 132, 133, 134, 135, 136, 137, 138, 139, 140, 141, 142, 143, 144, 145, 146, 147, 148, 149, 150],
      "LargestImagePixelValue": [2386, 2324, 2275, 2262, 2277, 2383, 2263, 2391, 2286, 2343, 2285, 2400, 2255, 2238, 2250, 2356, 2315, 2271, 2337, 2280, 2263, 2282, 2331, 2271, 2338, 2293, 2407, 2469, 2374, 2345, 2284, 2592, 2383, 2307, 2341, 2231, 2314, 2427, 2349, 2245, 2294, 2324, 2237, 2260, 2260, 2250, 2280, 2274, 2516, 2355, 2337, 2354, 2352, 2311, 2263, 2278, 2339, 2238, 2326, 2326, 2657, 2282, 2234, 2293, 2239, 2405, 2344, 2247, 2382, 2302, 2308, 2261, 2288, 2281, 2365, 2402, 2374, 2266, 2400, 2449, 2394, 2253, 2381, 2242, 2253, 2297, 2645, 2287, 2274, 2260, 2278, 2275, 2238, 2235, 2288, 2279, 2284, 2265, 2234, 2244, 2291, 2301, 2387, 2243, 2231, 2266, 2365, 2335, 2273, 2277, 2241, 2257, 2293, 2225, 2272, 2281, 2274, 2284, 2245, 2241, 2282, 2270, 2333, 2335, 2345, 2299, 2280, 2262, 2277, 2286, 2263, 2264, 2295, 2277, 2272, 2307, 2327, 2258, 2276, 2275, 2298, 2317, 2249, 2658, 2338, 2266, 2294, 2293, 2459, 2371],
      "WindowCenter": [725.0, 724.0, 723.0, 722.0, 722.0, 724.0, 722.0, 724.0, 722.0, 723.0, 722.0, 724.0, 722.0, 722.0, 723.0, 724.0, 723.0, 721.0, 722.0, 721.0, 721.0, 722.0, 725.0, 723.0, 722.0, 719.0, 720.0, 721.0, 721.0, 721.0, 721.0, 724.0, 722.0, 721.0, 721.0, 719.0, 719.0, 721.0, 721.0, 719.0, 721.0, 721.0, 720.0, 720.0, 721.0, 721.0, 721.0, 720.0, 723.0, 721.0, 721.0, 722.0, 722.0, 722.0, 721.0, 722.0, 723.0, 720.0, 721.0, 720.0, 724.0, 720.0, 720.0, 721.0, 720.0, 721.0, 721.0, 720.0, 722.0, 721.0, 721.0, 720.0, 721.0, 721.0, 723.0, 724.0, 723.0, 721.0, 723.0, 724.0, 722.0, 720.0, 722.0, 720.0, 721.0, 722.0, 726.0, 722.0, 721.0, 720.0, 721.0, 720.0, 720.0, 720.0, 721.0, 721.0, 721.0, 720.0, 720.0, 719.0, 721.0, 721.0, 722.0, 720.0, 721.0, 721.0, 722.0, 722.0, 721.0, 721.0, 720.0, 721.0, 722.0, 720.0, 721.0, 720.0, 721.0, 722.0, 720.0, 720.0, 721.0, 722.0, 723.0, 722.0, 722.0, 722.0, 722.0, 721.0, 721.0, 722.0, 721.0, 721.0, 723.0, 723.0, 723.0, 722.0, 722.0, 721.0, 722.0, 722.0, 722.0, 722.0, 721.0, 726.0, 723.0, 722.0, 722.0, 722.0, 723.0, 722.0],
      "WindowWidth": [1544.0, 1539.0, 1537.0, 1534.0, 1535.0, 1539.0, 1535.0, 1539.0, 1536.0, 1537.0, 1536.0, 1541.0, 1536.0, 1536.0, 1537.0, 1539.0, 1536.0, 1534.0, 1536.0, 1533.0, 1532.0, 1536.0, 1541.0, 1538.0, 1535.0, 1528.0, 1530.0, 1532.0, 1531.0, 1532.0, 1532.0, 1540.0, 1535.0, 1533.0, 1532.0, 1527.0, 1528.0, 1533.0, 1532.0, 1529.0, 1531.0, 1532.0, 1529.0, 1530.0, 1532.0, 1532.0, 1532.0, 1531.0, 1536.0, 1532.0, 1533.0, 1535.0, 1535.0, 1534.0, 1534.0, 1537.0, 1537.0, 1531.0, 1532.0, 1531.0, 1539.0, 1530.0, 1530.0, 1533.0, 1530.0, 1533.0, 1532.0, 1529.0, 1535.0, 1532.0, 1532.0, 1530.0, 1531.0, 1534.0, 1537.0, 1539.0, 1538.0, 1534.0, 1539.0, 1539.0, 1536.0, 1531.0, 1535.0, 1531.0, 1534.0, 1536.0, 1544.0, 1534.0, 1532.0, 1531.0, 1531.0, 1531.0, 1530.0, 1529.0, 1532.0, 1532.0, 1531.0, 1529.0, 1529.0, 1528.0, 1532.0, 1532.0, 1535.0, 1531.0, 1532.0, 1532.0, 1534.0, 1534.0, 1533.0, 1532.0, 1531.0, 1533.0, 1535.0, 1532.0, 1532.0, 1531.0, 1533.0, 1535.0, 1531.0, 1531.0, 1533.0, 1535.0, 1537.0, 1536.0, 1535.0, 1535.0, 1534.0, 1533.0, 1533.0, 1535.0, 1533.0, 1534.0, 1537.0, 1537.0, 1537.0, 1535.0, 1534.0, 1534.0, 1536.0, 1535.0, 1535.0, 1535.0, 1532.0, 1544.0, 1538.0, 1536.0, 1535.0, 1534.0, 1537.0, 1534.0]
    },
    "slices": {}
  }
}