{
  "AcquisitionMatrixPE": 100,
  "AcquisitionNumber": 1,
  "AcquisitionTime": "15:56:58.840000",
  "BandwidthPerPixelPhaseEncode": 18.519,
  "BaseResolution": 100,
  "BodyPartExamined": "BRAIN",
  "ConsistencyInfo": "N4_VE11C_LATEST_20160120",
  "ConversionSoftware": "dcm2niix",
  "ConversionSoftwareVersion": "v1.0.20180622 GCC4.9.2",
  "DerivedVendorReportedEchoSpacing": 0.000539986,
  "DeviceSerialNumber": "166078",
  "DwellTime": 2.1e-06,
  "EchoTime": 0.034,
  "EchoTrainLength": 100,
  "EffectiveEchoSpacing": 0.000539986,
  "FlipAngle": 90,
  "ImageOrientationPatientDICOM": [0.999864, -0.0133867, 0.00958516, 0.0139616, 0.997937, -0.0626628],
  "ImageType": [
    "ORIGINAL",
    "PRIMARY",
    "M",
    "ND",
    "MOSAIC"
],
  "InPlanePhaseEncodingDirectionDICOM": "COL",
  "InstitutionAddress": "Street_StreetNo_Bei_Jing_District_CN_ZIP",
  "InstitutionName": "BeiJing_Normal_University",
  "InstitutionalDepartmentName": "Department",
  "MRAcquisitionType": "2D",
  "MagneticFieldStrength": 3,
  "Manufacturer": "Siemens",
  "ManufacturersModelName": "Prisma",
  "Modality": "MR",
  "MultibandAccelerationFactor": 3,
  "PartialFourier": 1,
  "PatientPosition": "HFS",
  "PercentPhaseFOV": 100,
  "PhaseEncodingDirection": "j-",
  "PhaseEncodingSteps": 100,
  "PhaseResolution": 1,
  "PixelBandwidth": 2380,
  "ProcedureStepDescription": "BNU_P2018_64CH_Zhen.ZongLei",
  "ProtocolName": "bold_100x100_s3_2x2x2_retino_150",
  "PulseSequenceDetails": "%SiemensSeq%_ep2d_bold",
  "ReceiveCoilActiveElements": "HC1-7;NC1",
  "ReceiveCoilName": "HeadNeck_64",
  "ReconMatrixPE": 100,
  "RepetitionTime": 2,
  "SAR": 0.0722816,
  "ScanOptions": "FS",
  "ScanningSequence": "EP",
  "SequenceName": "_epfid2d1_100",
  "SequenceVariant": "SK",
  "SeriesDescription": "bold_100x100_s3_2x2x2_retino_150",
  "SeriesNumber": 14,
  "ShimSetting": [-5459, -11506, -1280, 608, -4, -239, -16, 57],
  "SliceThickness": 2,
  "SliceTiming": [1.485, 0, 0.99, 0.0825, 1.0725, 0.165, 1.155, 0.2475, 1.2375, 0.33, 1.32, 0.4125, 1.4025, 0.5775, 1.5675, 0.66, 1.65, 0.7425, 1.7325, 0.825, 1.815, 0.9075, 1.8975, 0.495, 1.485, 0, 0.99, 0.0825, 1.0725, 0.165, 1.155, 0.2475, 1.2375, 0.33, 1.32, 0.4125, 1.4025, 0.5775, 1.5675, 0.66, 1.65, 0.7425, 1.7325, 0.825, 1.815, 0.9075, 1.8975, 0.495, 1.485, 0, 0.99, 0.0825, 1.0725, 0.165, 1.155, 0.2475, 1.2375, 0.33, 1.32, 0.4125, 1.4025, 0.5775, 1.5675, 0.66, 1.65, 0.7425, 1.7325, 0.825, 1.815, 0.9075, 1.8975, 0.495],
  "SoftwareVersions": "syngo_MR_E11",
  "SpacingBetweenSlices": 2,
  "StationName": "AWP166078",
  "TaskName": "retinotopy",
  "TotalReadoutTime": 0.0534586,
  "TxRefAmp": 210.95,
  "dcmmeta_affine": [
    [-1.9997289180755615, 0.027923252433538437, 0.01745307445526123, 97.99861907958984],
    [0.02677343226969242, 1.9958741664886475, -0.12557625770568848, -79.12895965576172],
    [0.01917031966149807, 0.12532559037208557, 1.995977520942688, -77.33649444580078],
    [0.0, 0.0, 0.0, 1.0]
],
  "dcmmeta_reorient_transform": [
    [0.0, -1.0, 0.0, 99.0],
    [1.0, 0.0, 0.0, 0.0],
    [0.0, 0.0, 1.0, 0.0],
    [0.0, 0.0, 0.0, 1.0]
],
  "dcmmeta_shape": [100, 100, 72, 150],
  "dcmmeta_slice_dim": 2,
  "dcmmeta_version": 0.6,
  "global": {
    "const": {
      "AcquisitionMatrix": [100, 0, 0, 100],
      "AngioFlag": "N",
      "BitsAllocated": 16,
      "BitsStored": 12,
      "BodyPartExamined": "BRAIN",
      "Columns": 900,
      "EchoNumbers": 1,
      "EchoTime": 34.0,
      "EchoTrainLength": 100,
      "FlipAngle": 90.0,
      "HighBit": 11,
      "ImageOrientationPatient": [0.99986445108199, -0.0133867164992, 0.00958515956505, 0.01396162637604, 0.99793709563415, -0.0626627971465],
      "ImagePositionPatient": [-911.82388568827, -906.10289050738, -22.467148576603],
      "ImageType": [
        "ORIGINAL",
        "PRIMARY",
        "M",
        "ND",
        "MOSAIC"
],
      "ImagedNucleus": "1H",
      "ImagingFrequency": 123.257768,
      "InPlanePhaseEncodingDirection": "COL",
      "MRAcquisitionType": "2D",
      "MagneticFieldStrength": 3.0,
      "Manufacturer": "SIEMENS",
      "ManufacturerModelName": "Prisma",
      "Modality": "MR",
      "NumberOfAverages": 1.0,
      "NumberOfPhaseEncodingSteps": 100,
      "PercentPhaseFieldOfView": 100.0,
      "PercentSampling": 100.0,
      "PerformedProcedureStepStartTime": "145752.075000",
      "PhotometricInterpretation": "MONOCHROME2",
      "PixelBandwidth": 2380.0,
      "PixelRepresentation": 0,
      "PixelSpacing": [2.0, 2.0],
      "ProtocolName": "bold_100x100_s3_2x2x2_retino_150",
      "RepetitionTime": 2000.0,
      "Rows": 900,
      "SAR": 0.07228158101174,
      "SamplesPerPixel": 1,
      "ScanOptions": "FS",
      "ScanningSequence": "EP",
      "SequenceName": "*epfid2d1_100",
      "SequenceVariant": "SK",
      "SeriesDescription": "bold_100x100_s3_2x2x2_retino_150",
      "SeriesNumber": 14,
      "SeriesTime": "155701.236000",
      "SliceLocation": -71.357399932637,
      "SliceThickness": 2.0,
      "SmallestImagePixelValue": 0,
      "SoftwareVersions": "syngo MR E11",
      "SpacingBetweenSlices": 2.0000000292461,
      "SpecificCharacterSet": "ISO_IR 100",
      "StudyID": "1",
      "StudyTime": "145751.984000",
      "TransmitCoilName": "Body",
      "VariableFlipAngleFlag": "N",
      "WindowCenterWidthExplanation": "Algo1",
      "dBdt": 0.0},
    "slices": {}
  },
  "time": {
    "samples": {
      "AcquisitionNumber": [1, 2, 3, 4, 5, 6, 7, 8, 9, 10, 11, 12, 13, 14, 15, 16, 17, 18, 19, 20, 21, 22, 23, 24, 25, 26, 27, 28, 29, 30, 31, 32, 33, 34, 35, 36, 37, 38, 39, 40, 41, 42, 43, 44, 45, 46, 47, 48, 49, 50, 51, 52, 53, 54, 55, 56, 57, 58, 59, 60, 61, 62, 63, 64, 65, 66, 67, 68, 69, 70, 71, 72, 73, 74, 75, 76, 77, 78, 79, 80, 81, 82, 83, 84, 85, 86, 87, 88, 89, 90, 91, 92, 93, 94, 95, 96, 97, 98, 99, 100, 101, 102, 103, 104, 105, 106, 107, 108, 109, 110, 111, 112, 113, 114, 115, 116, 117, 118, 119, 120, 121, 122, 123, 124, 125, 126, 127, 128, 129, 130, 131, 132, 133, 134, 135, 136, 137, 138, 139, 140, 141, 142, 143, 144, 145, 146, 147, 148, 149, 150],
      "AcquisitionTime": ["155658.840000", "155700.840000", "155702.840000", "155704.840000", "155706.840000", "155708.840000", "155710.840000", "155712.840000", "155714.840000", "155716.840000", "155718.840000", "155720.840000", "155722.840000", "155724.840000", "155726.840000", "155728.840000", "155730.840000", "155732.840000", "155734.840000", "155736.840000", "155738.840000", "155740.840000", "155742.840000", "155744.840000", "155746.840000", "155748.840000", "155750.840000", "155752.840000", "155754.840000", "155756.840000", "155758.840000", "155800.840000", "155802.840000", "155804.840000", "155806.840000", "155808.840000", "155810.840000", "155812.840000", "155814.840000", "155816.840000", "155818.840000", "155820.840000", "155822.840000", "155824.840000", "155826.840000", "155828.840000", "155830.840000", "155832.840000", "155834.840000", "155836.840000", "155838.840000", "155840.840000", "155842.840000", "155844.840000", "155846.840000", "155848.840000", "155850.840000", "155852.840000", "155854.840000", "155856.840000", "155858.840000", "155900.840000", "155902.840000", "155904.840000", "155906.840000", "155908.840000", "155910.840000", "155912.840000", "155914.840000", "155916.840000", "155918.840000", "155920.840000", "155922.840000", "155924.840000", "155926.840000", "155928.840000", "155930.840000", "155932.840000", "155934.840000", "155936.840000", "155938.840000", "155940.840000", "155942.840000", "155944.840000", "155946.840000", "155948.840000", "155950.840000", "155952.840000", "155954.840000", "155956.840000", "155958.840000", "160000.840000", "160002.840000", "160004.840000", "160006.840000", "160008.840000", "160010.840000", "160012.840000", "160014.840000", "160016.840000", "160018.840000", "160020.840000", "160022.840000", "160024.840000", "160026.840000", "160028.840000", "160030.840000", "160032.840000", "160034.840000", "160036.840000", "160038.840000", "160040.840000", "160042.840000", "160044.840000", "160046.840000", "160048.840000", "160050.840000", "160052.840000", "160054.840000", "160056.840000", "160058.840000", "160100.840000", "160102.840000", "160104.840000", "160106.840000", "160108.840000", "160110.840000", "160112.840000", "160114.840000", "160116.840000", "160118.840000", "160120.840000", "160122.840000", "160124.840000", "160126.840000", "160128.840000", "160130.840000", "160132.840000", "160134.840000", "160136.840000", "160138.840000", "160140.840000", "160142.840000", "160144.840000", "160146.840000", "160148.840000", "160150.840000", "160152.840000", "160154.840000", "160156.840000"],
      "ContentTime": ["155701.240000", "155702.736000", "155704.735000", "155706.735000", "155708.734000", "155710.735000", "155712.734000", "155714.734000", "155716.734000", "155718.735000", "155720.735000", "155722.735000", "155724.734000", "155726.735000", "155728.735000", "155730.734000", "155732.734000", "155734.734000", "155736.735000", "155738.736000", "155740.736000", "155742.735000", "155744.734000", "155746.735000", "155748.734000", "155750.734000", "155752.736000", "155754.736000", "155756.736000", "155758.734000", "155800.735000", "155802.735000", "155804.735000", "155806.734000", "155808.734000", "155810.735000", "155812.735000", "155814.735000", "155816.735000", "155818.734000", "155820.735000", "155822.735000", "155824.735000", "155826.735000", "155828.736000", "155830.736000", "155832.735000", "155834.734000", "155836.734000", "155838.734000", "155840.734000", "155842.734000", "155844.734000", "155846.735000", "155848.736000", "155850.736000", "155852.734000", "155854.734000", "155856.734000", "155858.734000", "155900.734000", "155902.735000", "155904.735000", "155906.735000", "155908.735000", "155910.734000", "155912.734000", "155914.734000", "155916.735000", "155918.734000", "155920.736000", "155922.735000", "155924.735000", "155926.734000", "155928.735000", "155930.735000", "155932.735000", "155934.735000", "155936.734000", "155938.736000", "155940.735000", "155942.736000", "155944.735000", "155946.734000", "155948.735000", "155950.734000", "155952.734000", "155954.734000", "155956.736000", "155958.735000", "160000.735000", "160002.734000", "160004.734000", "160006.734000", "160008.735000", "160010.734000", "160012.735000", "160014.735000", "160016.736000", "160018.734000", "160020.734000", "160022.734000", "160024.734000", "160026.734000", "160028.734000", "160030.735000", "160032.735000", "160034.736000", "160036.735000", "160038.735000", "160040.735000", "160042.734000", "160044.734000", "160046.740000", "160048.735000", "160050.735000", "160052.735000", "160054.734000", "160056.734000", "160058.734000", "160100.735000", "160102.735000", "160104.734000", "160106.735000", "160108.735000", "160110.735000", "160112.735000", "160114.734000", "160116.735000", "160118.735000", "160120.734000", "160122.735000", "160124.735000", "160126.736000", "160128.734000", "160130.735000", "160132.734000", "160134.735000", "160136.734000", "160138.735000", "160140.736000", "160142.736000", "160144.735000", "160146.734000", "160148.734000", "160150.735000", "160152.734000", "160154.734000", "160156.734000", "160158.542000"],
      "InstanceCreationTime": ["155701.240000", "155702.736000", "155704.735000", "155706.735000", "155708.734000", "155710.735000", "155712.734000", "155714.734000", "155716.734000", "155718.735000", "155720.735000", "155722.735000", "155724.734000", "155726.735000", "155728.735000", "155730.734000", "155732.734000", "155734.734000", "155736.735000", "155738.736000", "155740.736000", "155742.735000", "155744.734000", "155746.735000", "155748.734000", "155750.734000", "155752.736000", "155754.736000", "155756.736000", "155758.734000", "155800.735000", "155802.735000", "155804.735000", "155806.734000", "155808.734000", "155810.735000", "155812.735000", "155814.735000", "155816.735000", "155818.734000", "155820.735000", "155822.735000", "155824.735000", "155826.735000", "155828.736000", "155830.736000", "155832.735000", "155834.734000", "155836.734000", "155838.734000", "155840.734000", "155842.734000", "155844.734000", "155846.735000", "155848.736000", "155850.736000", "155852.734000", "155854.734000", "155856.734000", "155858.734000", "155900.734000", "155902.735000", "155904.735000", "155906.735000", "155908.735000", "155910.734000", "155912.734000", "155914.734000", "155916.735000", "155918.734000", "155920.736000", "155922.735000", "155924.735000", "155926.734000", "155928.735000", "155930.735000", "155932.735000", "155934.735000", "155936.734000", "155938.736000", "155940.735000", "155942.736000", "155944.735000", "155946.734000", "155948.735000", "155950.734000", "155952.734000", "155954.734000", "155956.736000", "155958.735000", "160000.735000", "160002.734000", "160004.734000", "160006.734000", "160008.735000", "160010.734000", "160012.735000", "160014.735000", "160016.736000", "160018.734000", "160020.734000", "160022.734000", "160024.734000", "160026.734000", "160028.734000", "160030.735000", "160032.735000", "160034.736000", "160036.735000", "160038.735000", "160040.735000", "160042.734000", "160044.734000", "160046.740000", "160048.735000", "160050.735000", "160052.735000", "160054.734000", "160056.734000", "160058.734000", "160100.735000", "160102.735000", "160104.734000", "160106.735000", "160108.735000", "160110.735000", "160112.735000", "160114.734000", "160116.735000", "160118.735000", "160120.734000", "160122.735000", "160124.735000", "160126.736000", "160128.734000", "160130.735000", "160132.734000", "160134.735000", "160136.734000", "160138.735000", "160140.736000", "160142.736000", "160144.735000", "160146.734000", "160148.734000", "160150.735000", "160152.734000", "160154.734000", "160156.734000", "160158.542000"],
      "InstanceNumber": [1, 2, 3, 4, 5, 6, 7, 8, 9, 10, 11, 12, 13, 14, 15, 16, 17, 18, 19, 20, 21, 22, 23, 24, 25, 26, 27, 28, 29, 30, 31, 32, 33, 34, 35, 36, 37, 38, 39, 40, 41, 42, 43, 44, 45, 46, 47, 48, 49, 50, 51, 52, 53, 54, 55, 56, 57, 58, 59, 60, 61, 62, 63, 64, 65, 66, 67, 68, 69, 70, 71, 72, 73, 74, 75, 76, 77, 78, 79, 80, 81, 82, 83, 84, 85, 86, 87, 88, 89, 90, 91, 92, 93, 94, 95, 96, 97, 98, 99, 100, 101, 102, 103, 104, 105, 106, 107, 108, 109, 110, 111, 112, 113, 114, 115, 116, 117, 118, 119, 120, 121, 122, 123, 124, 125, 126, 127, 128, 129, 130, 131, 132, 133, 134, 135, 136, 137, 138, 139, 140, 141, 142, 143, 144, 145, 146, 147, 148, 149, 150],
      "LargestImagePixelValue": [2512, 2403, 2445, 2413, 2259, 2470, 2353, 2288, 2320, 2334, 2551, 2306, 2395, 2415, 2375, 2406, 2407, 2407, 2399, 2406, 2431, 2380, 2387, 2402, 2421, 2407, 2341, 2370, 2263, 2748, 2487, 2400, 2315, 2331, 2373, 2322, 2300, 2376, 2250, 2283, 2311, 2286, 2281, 2227, 2210, 2236, 2246, 2395, 2257, 2265, 2271, 2363, 2242, 2272, 2237, 2312, 2260, 2318, 2299, 2225, 2262, 2230, 2258, 2280, 2235, 2335, 2248, 2265, 2229, 2233, 2228, 2275, 2246, 2253, 2297, 2288, 2279, 2273, 2213, 2259, 2263, 2570, 2260, 2261, 2241, 2255, 2247, 2268, 2267, 2298, 2247, 2274, 2262, 2301, 2408, 2246, 2227, 2243, 2270, 2230, 2267, 2263, 2328, 2255, 2265, 2304, 2304, 2277, 2287, 2385, 2302, 2300, 2276, 2278, 2277, 2283, 2767, 2288, 2281, 2295, 2278, 2321, 2417, 2302, 2310, 2318, 2299, 2464, 2311, 2492, 2275, 2422, 2266, 2292, 2308, 2282, 2300, 2281, 2284, 2303, 2424, 2589, 2491, 2297, 2280, 2396, 2376, 2285, 2277, 2545],
      "WindowCenter": [730.0, 727.0, 727.0, 727.0, 726.0, 729.0, 726.0, 725.0, 726.0, 726.0, 728.0, 725.0, 726.0, 726.0, 726.0, 727.0, 727.0, 727.0, 727.0, 726.0, 727.0, 727.0, 727.0, 726.0, 726.0, 725.0, 725.0, 727.0, 725.0, 730.0, 727.0, 725.0, 725.0, 726.0, 726.0, 724.0, 724.0, 725.0, 724.0, 725.0, 726.0, 725.0, 724.0, 722.0, 723.0, 724.0, 724.0, 726.0, 725.0, 725.0, 726.0, 727.0, 725.0, 725.0, 724.0, 725.0, 724.0, 725.0, 725.0, 724.0, 724.0, 724.0, 725.0, 725.0, 724.0, 726.0, 724.0, 725.0, 724.0, 724.0, 725.0, 726.0, 724.0, 724.0, 725.0, 725.0, 725.0, 724.0, 722.0, 723.0, 725.0, 729.0, 725.0, 725.0, 725.0, 725.0, 724.0, 724.0, 724.0, 725.0, 724.0, 724.0, 724.0, 725.0, 727.0, 724.0, 723.0, 723.0, 724.0, 723.0, 725.0, 725.0, 726.0, 725.0, 725.0, 726.0, 727.0, 726.0, 725.0, 726.0, 725.0, 726.0, 725.0, 725.0, 725.0, 725.0, 732.0, 726.0, 726.0, 726.0, 726.0, 727.0, 729.0, 727.0, 727.0, 726.0, 726.0, 727.0, 725.0, 728.0, 726.0, 727.0, 725.0, 726.0, 727.0, 726.0, 727.0, 725.0, 725.0, 724.0, 726.0, 727.0, 726.0, 724.0, 724.0, 726.0, 726.0, 726.0, 726.0, 730.0],
      "WindowWidth": [1554.0, 1547.0, 1547.0, 1548.0, 1545.0, 1551.0, 1545.0, 1541.0, 1543.0, 1545.0, 1550.0, 1542.0, 1543.0, 1545.0, 1545.0, 1547.0, 1547.0, 1546.0, 1546.0, 1546.0, 1547.0, 1547.0, 1547.0, 1545.0, 1543.0, 1541.0, 1542.0, 1547.0, 1543.0, 1553.0, 1545.0, 1543.0, 1543.0, 1545.0, 1544.0, 1540.0, 1540.0, 1543.0, 1540.0, 1542.0, 1543.0, 1541.0, 1539.0, 1536.0, 1537.0, 1540.0, 1539.0, 1544.0, 1541.0, 1541.0, 1543.0, 1548.0, 1542.0, 1541.0, 1539.0, 1542.0, 1541.0, 1543.0, 1542.0, 1539.0, 1539.0, 1540.0, 1542.0, 1542.0, 1540.0, 1544.0, 1541.0, 1541.0, 1539.0, 1541.0, 1543.0, 1545.0, 1540.0, 1538.0, 1542.0, 1543.0, 1542.0, 1539.0, 1535.0, 1538.0, 1541.0, 1551.0, 1542.0, 1542.0, 1542.0, 1541.0, 1540.0, 1540.0, 1540.0, 1543.0, 1541.0, 1541.0, 1540.0, 1542.0, 1547.0, 1541.0, 1538.0, 1537.0, 1540.0, 1538.0, 1541.0, 1542.0, 1544.0, 1542.0, 1542.0, 1546.0, 1547.0, 1544.0, 1542.0, 1545.0, 1542.0, 1544.0, 1542.0, 1541.0, 1541.0, 1543.0, 1558.0, 1545.0, 1544.0, 1544.0, 1544.0, 1548.0, 1551.0, 1546.0, 1546.0, 1545.0, 1544.0, 1546.0, 1543.0, 1549.0, 1544.0, 1547.0, 1542.0, 1546.0, 1546.0, 1546.0, 1546.0, 1542.0, 1542.0, 1540.0, 1543.0, 1545.0, 1544.0, 1540.0, 1539.0, 1543.0, 1545.0, 1544.0, 1545.0, 1554.0]
    },
    "slices": {}
  }
}