{
 "AcquisitionMatrixPE": 100,
 "AcquisitionNumber": 1,
 "AcquisitionTime": "15:01:20.827500",
 "BandwidthPerPixelPhaseEncode": 18.519,
 "BaseResolution": 100,
 "BodyPartExamined": "BRAIN",
 "ConsistencyInfo": "N4_VE11C_LATEST_20160120",
 "ConversionSoftware": "dcm2niix",
 "ConversionSoftwareVersion": "v1.0.20180622 GCC4.9.2",
 "DerivedVendorReportedEchoSpacing": 0.000539986,
 "DeviceSerialNumber": "166078",
 "DwellTime": 2.1e-06,
 "EchoTime": 0.034,
 "EchoTrainLength": 100,
 "EffectiveEchoSpacing": 0.000539986,
 "FlipAngle": 90,
 "ImageOrientationPatientDICOM": [
  0.999864,
  -0.0133867,
  0.00958516,
  0.0139616,
  0.997937,
  -0.0626628
 ],
 "ImageType": [
  "ORIGINAL",
  "PRIMARY",
  "M",
  "ND",
  "MOSAIC"
 ],
 "InPlanePhaseEncodingDirectionDICOM": "COL",
 "InstitutionAddress": "Street_StreetNo_Bei_Jing_District_CN_ZIP",
 "InstitutionName": "BeiJing_Normal_University",
 "InstitutionalDepartmentName": "Department",
 "MRAcquisitionType": "2D",
 "MagneticFieldStrength": 3,
 "Manufacturer": "Siemens",
 "ManufacturersModelName": "Prisma",
 "Modality": "MR",
 "MultibandAccelerationFactor": 3,
 "PartialFourier": 1,
 "PatientPosition": "HFS",
 "PercentPhaseFOV": 100,
 "PhaseEncodingDirection": "j-",
 "PhaseEncodingSteps": 100,
 "PhaseResolution": 1,
 "PixelBandwidth": 2380,
 "ProcedureStepDescription": "BNU_P2018_64CH_Zhen.ZongLei",
 "ProtocolName": "bold_100x100_s3_2x2x2_retino_150",
 "PulseSequenceDetails": "%SiemensSeq%_ep2d_bold",
 "ReceiveCoilActiveElements": "HC1-7;NC1",
 "ReceiveCoilName": "HeadNeck_64",
 "ReconMatrixPE": 100,
 "RepetitionTime": 2,
 "SAR": 0.0722816,
 "ScanOptions": "FS",
 "ScanningSequence": "EP",
 "SequenceName": "_epfid2d1_100",
 "SequenceVariant": "SK",
 "SeriesDescription": "bold_100x100_s3_2x2x2_retino_150",
 "SeriesNumber": 3,
 "ShimSetting": [
  -5459,
  -11506,
  -1280,
  608,
  -4,
  -239,
  -16,
  57
 ],
 "SliceThickness": 2,
 "SliceTiming": [
  1.485,
  0,
  0.99,
  0.0825,
  1.0725,
  0.165,
  1.155,
  0.2475,
  1.2375,
  0.33,
  1.32,
  0.4125,
  1.4025,
  0.5775,
  1.5675,
  0.66,
  1.65,
  0.7425,
  1.7325,
  0.825,
  1.815,
  0.9075,
  1.8975,
  0.495,
  1.485,
  0,
  0.99,
  0.0825,
  1.0725,
  0.165,
  1.155,
  0.2475,
  1.2375,
  0.33,
  1.32,
  0.4125,
  1.4025,
  0.5775,
  1.5675,
  0.66,
  1.65,
  0.7425,
  1.7325,
  0.825,
  1.815,
  0.9075,
  1.8975,
  0.495,
  1.485,
  0,
  0.99,
  0.0825,
  1.0725,
  0.165,
  1.155,
  0.2475,
  1.2375,
  0.33,
  1.32,
  0.4125,
  1.4025,
  0.5775,
  1.5675,
  0.66,
  1.65,
  0.7425,
  1.7325,
  0.825,
  1.815,
  0.9075,
  1.8975,
  0.495
 ],
 "SoftwareVersions": "syngo_MR_E11",
 "SpacingBetweenSlices": 2,
 "StationName": "AWP166078",
 "TaskName": "prf",
 "TotalReadoutTime": 0.0534586,
 "TxRefAmp": 210.95,
 "dcmmeta_affine": [
  [
   -1.9997289180755615,
   0.027923252433538437,
   0.01745307445526123,
   97.99861907958984
  ],
  [
   0.02677343226969242,
   1.9958741664886475,
   -0.12557625770568848,
   -79.12895965576172
  ],
  [
   0.01917031966149807,
   0.12532559037208557,
   1.995977520942688,
   -77.33649444580078
  ],
  [
   0.0,
   0.0,
   0.0,
   1.0
  ]
 ],
 "dcmmeta_reorient_transform": [
  [
   0.0,
   -1.0,
   0.0,
   99.0
  ],
  [
   1.0,
   0.0,
   0.0,
   0.0
  ],
  [
   0.0,
   0.0,
   1.0,
   0.0
  ],
  [
   0.0,
   0.0,
   0.0,
   1.0
  ]
 ],
 "dcmmeta_shape": [
  100,
  100,
  72,
  150
 ],
 "dcmmeta_slice_dim": 2,
 "dcmmeta_version": 0.6,
 "global": {
  "const": {
   "AcquisitionMatrix": [
    100,
    0,
    0,
    100
   ],
   "AngioFlag": "N",
   "BitsAllocated": 16,
   "BitsStored": 12,
   "BodyPartExamined": "BRAIN",
   "Columns": 900,
   "EchoNumbers": 1,
   "EchoTime": 34.0,
   "EchoTrainLength": 100,
   "FlipAngle": 90.0,
   "HighBit": 11,
   "ImageOrientationPatient": [
    0.99986445108199,
    -0.0133867164992,
    0.00958515956505,
    0.01396162637604,
    0.99793709563415,
    -0.0626627971465
   ],
   "ImagePositionPatient": [
    -911.82388568827,
    -906.10289050738,
    -22.467148576603
   ],
   "ImageType": [
    "ORIGINAL",
    "PRIMARY",
    "M",
    "ND",
    "MOSAIC"
   ],
   "ImagedNucleus": "1H",
   "ImagingFrequency": 123.257761,
   "InPlanePhaseEncodingDirection": "COL",
   "MRAcquisitionType": "2D",
   "MagneticFieldStrength": 3.0,
   "Manufacturer": "SIEMENS",
   "ManufacturerModelName": "Prisma",
   "Modality": "MR",
   "NumberOfAverages": 1.0,
   "NumberOfPhaseEncodingSteps": 100,
   "PercentPhaseFieldOfView": 100.0,
   "PercentSampling": 100.0,
   "PerformedProcedureStepStartTime": "145752.075000",
   "PhotometricInterpretation": "MONOCHROME2",
   "PixelBandwidth": 2380.0,
   "PixelRepresentation": 0,
   "PixelSpacing": [
    2.0,
    2.0
   ],
   "ProtocolName": "bold_100x100_s3_2x2x2_retino_150",
   "RepetitionTime": 2000.0,
   "Rows": 900,
   "SAR": 0.07228158101174,
   "SamplesPerPixel": 1,
   "ScanOptions": "FS",
   "ScanningSequence": "EP",
   "SequenceName": "*epfid2d1_100",
   "SequenceVariant": "SK",
   "SeriesDescription": "bold_100x100_s3_2x2x2_retino_150",
   "SeriesNumber": 3,
   "SeriesTime": "150123.076000",
   "SliceLocation": -71.357399932637,
   "SliceThickness": 2.0,
   "SmallestImagePixelValue": 0,
   "SoftwareVersions": "syngo MR E11",
   "SpacingBetweenSlices": 2.0000000292461,
   "SpecificCharacterSet": "ISO_IR 100",
   "StudyID": "1",
   "StudyTime": "145751.984000",
   "TransmitCoilName": "Body",
   "VariableFlipAngleFlag": "N",
   "WindowCenterWidthExplanation": "Algo1",
   "dBdt": 0.0
  },
  "slices": {}
 },
 "time": {
  "samples": {
   "AcquisitionNumber": [
    1,
    2,
    3,
    4,
    5,
    6,
    7,
    8,
    9,
    10,
    11,
    12,
    13,
    14,
    15,
    16,
    17,
    18,
    19,
    20,
    21,
    22,
    23,
    24,
    25,
    26,
    27,
    28,
    29,
    30,
    31,
    32,
    33,
    34,
    35,
    36,
    37,
    38,
    39,
    40,
    41,
    42,
    43,
    44,
    45,
    46,
    47,
    48,
    49,
    50,
    51,
    52,
    53,
    54,
    55,
    56,
    57,
    58,
    59,
    60,
    61,
    62,
    63,
    64,
    65,
    66,
    67,
    68,
    69,
    70,
    71,
    72,
    73,
    74,
    75,
    76,
    77,
    78,
    79,
    80,
    81,
    82,
    83,
    84,
    85,
    86,
    87,
    88,
    89,
    90,
    91,
    92,
    93,
    94,
    95,
    96,
    97,
    98,
    99,
    100,
    101,
    102,
    103,
    104,
    105,
    106,
    107,
    108,
    109,
    110,
    111,
    112,
    113,
    114,
    115,
    116,
    117,
    118,
    119,
    120,
    121,
    122,
    123,
    124,
    125,
    126,
    127,
    128,
    129,
    130,
    131,
    132,
    133,
    134,
    135,
    136,
    137,
    138,
    139,
    140,
    141,
    142,
    143,
    144,
    145,
    146,
    147,
    148,
    149,
    150
   ],
   "AcquisitionTime": [
    "150120.827500",
    "150122.827500",
    "150124.827500",
    "150126.827500",
    "150128.827500",
    "150130.827500",
    "150132.827500",
    "150134.827500",
    "150136.827500",
    "150138.827500",
    "150140.827500",
    "150142.827500",
    "150144.827500",
    "150146.827500",
    "150148.827500",
    "150150.827500",
    "150152.827500",
    "150154.827500",
    "150156.827500",
    "150158.827500",
    "150200.827500",
    "150202.827500",
    "150204.827500",
    "150206.827500",
    "150208.827500",
    "150210.827500",
    "150212.827500",
    "150214.827500",
    "150216.827500",
    "150218.827500",
    "150220.827500",
    "150222.827500",
    "150224.827500",
    "150226.827500",
    "150228.827500",
    "150230.827500",
    "150232.827500",
    "150234.827500",
    "150236.827500",
    "150238.827500",
    "150240.827500",
    "150242.827500",
    "150244.827500",
    "150246.827500",
    "150248.827500",
    "150250.827500",
    "150252.827500",
    "150254.827500",
    "150256.827500",
    "150258.827500",
    "150300.827500",
    "150302.827500",
    "150304.827500",
    "150306.827500",
    "150308.827500",
    "150310.827500",
    "150312.827500",
    "150314.827500",
    "150316.827500",
    "150318.827500",
    "150320.827500",
    "150322.827500",
    "150324.827500",
    "150326.827500",
    "150328.827500",
    "150330.827500",
    "150332.827500",
    "150334.827500",
    "150336.827500",
    "150338.827500",
    "150340.827500",
    "150342.827500",
    "150344.827500",
    "150346.827500",
    "150348.827500",
    "150350.827500",
    "150352.827500",
    "150354.827500",
    "150356.827500",
    "150358.827500",
    "150400.827500",
    "150402.827500",
    "150404.827500",
    "150406.827500",
    "150408.827500",
    "150410.827500",
    "150412.827500",
    "150414.827500",
    "150416.827500",
    "150418.827500",
    "150420.827500",
    "150422.827500",
    "150424.827500",
    "150426.827500",
    "150428.827500",
    "150430.827500",
    "150432.827500",
    "150434.827500",
    "150436.827500",
    "150438.827500",
    "150440.827500",
    "150442.827500",
    "150444.827500",
    "150446.827500",
    "150448.827500",
    "150450.827500",
    "150452.827500",
    "150454.827500",
    "150456.827500",
    "150458.827500",
    "150500.827500",
    "150502.827500",
    "150504.827500",
    "150506.827500",
    "150508.827500",
    "150510.827500",
    "150512.827500",
    "150514.827500",
    "150516.827500",
    "150518.827500",
    "150520.827500",
    "150522.827500",
    "150524.827500",
    "150526.827500",
    "150528.827500",
    "150530.827500",
    "150532.827500",
    "150534.827500",
    "150536.827500",
    "150538.827500",
    "150540.827500",
    "150542.827500",
    "150544.827500",
    "150546.827500",
    "150548.827500",
    "150550.827500",
    "150552.827500",
    "150554.827500",
    "150556.827500",
    "150558.827500",
    "150600.827500",
    "150602.827500",
    "150604.827500",
    "150606.827500",
    "150608.827500",
    "150610.827500",
    "150612.827500",
    "150614.827500",
    "150616.827500",
    "150618.827500"
   ],
   "ContentTime": [
    "150123.080000",
    "150124.575000",
    "150126.574000",
    "150128.574000",
    "150130.574000",
    "150132.574000",
    "150134.574000",
    "150136.575000",
    "150138.575000",
    "150140.575000",
    "150142.574000",
    "150144.574000",
    "150146.574000",
    "150148.574000",
    "150150.574000",
    "150152.574000",
    "150154.574000",
    "150156.575000",
    "150158.575000",
    "150200.574000",
    "150202.574000",
    "150204.574000",
    "150206.574000",
    "150208.574000",
    "150210.577000",
    "150212.575000",
    "150214.576000",
    "150216.576000",
    "150218.575000",
    "150220.574000",
    "150222.575000",
    "150224.575000",
    "150226.574000",
    "150228.574000",
    "150230.575000",
    "150232.575000",
    "150234.575000",
    "150236.575000",
    "150238.575000",
    "150240.575000",
    "150242.574000",
    "150244.575000",
    "150246.575000",
    "150248.575000",
    "150250.575000",
    "150252.575000",
    "150254.575000",
    "150256.574000",
    "150258.575000",
    "150300.574000",
    "150302.574000",
    "150304.574000",
    "150306.575000",
    "150308.575000",
    "150310.575000",
    "150312.575000",
    "150314.575000",
    "150316.575000",
    "150318.575000",
    "150320.574000",
    "150322.574000",
    "150324.575000",
    "150326.576000",
    "150328.575000",
    "150330.575000",
    "150332.574000",
    "150334.574000",
    "150336.575000",
    "150338.574000",
    "150340.575000",
    "150342.575000",
    "150344.575000",
    "150346.574000",
    "150348.574000",
    "150350.575000",
    "150352.574000",
    "150354.574000",
    "150356.574000",
    "150358.575000",
    "150400.576000",
    "150402.575000",
    "150404.574000",
    "150406.574000",
    "150408.575000",
    "150410.575000",
    "150412.574000",
    "150414.575000",
    "150416.575000",
    "150418.575000",
    "150420.575000",
    "150422.574000",
    "150424.575000",
    "150426.574000",
    "150428.574000",
    "150430.575000",
    "150432.575000",
    "150434.575000",
    "150436.575000",
    "150438.575000",
    "150440.575000",
    "150442.575000",
    "150444.574000",
    "150446.574000",
    "150448.575000",
    "150450.575000",
    "150452.576000",
    "150454.576000",
    "150456.574000",
    "150458.575000",
    "150500.574000",
    "150502.575000",
    "150504.575000",
    "150506.574000",
    "150508.576000",
    "150510.576000",
    "150512.574000",
    "150514.574000",
    "150516.574000",
    "150518.575000",
    "150520.574000",
    "150522.574000",
    "150524.575000",
    "150526.576000",
    "150528.575000",
    "150530.575000",
    "150532.575000",
    "150534.575000",
    "150536.575000",
    "150538.575000",
    "150540.574000",
    "150542.575000",
    "150544.576000",
    "150546.575000",
    "150548.575000",
    "150550.575000",
    "150552.574000",
    "150554.574000",
    "150556.574000",
    "150558.575000",
    "150600.575000",
    "150602.575000",
    "150604.576000",
    "150606.574000",
    "150608.575000",
    "150610.575000",
    "150612.574000",
    "150614.575000",
    "150616.575000",
    "150618.575000",
    "150620.343000"
   ],
   "InstanceCreationTime": [
    "150123.080000",
    "150124.575000",
    "150126.574000",
    "150128.574000",
    "150130.574000",
    "150132.574000",
    "150134.574000",
    "150136.575000",
    "150138.575000",
    "150140.575000",
    "150142.574000",
    "150144.574000",
    "150146.574000",
    "150148.574000",
    "150150.574000",
    "150152.574000",
    "150154.574000",
    "150156.575000",
    "150158.575000",
    "150200.574000",
    "150202.574000",
    "150204.574000",
    "150206.574000",
    "150208.574000",
    "150210.577000",
    "150212.575000",
    "150214.576000",
    "150216.576000",
    "150218.575000",
    "150220.574000",
    "150222.575000",
    "150224.575000",
    "150226.574000",
    "150228.574000",
    "150230.575000",
    "150232.575000",
    "150234.575000",
    "150236.575000",
    "150238.575000",
    "150240.575000",
    "150242.574000",
    "150244.575000",
    "150246.575000",
    "150248.575000",
    "150250.575000",
    "150252.575000",
    "150254.575000",
    "150256.574000",
    "150258.575000",
    "150300.574000",
    "150302.574000",
    "150304.574000",
    "150306.575000",
    "150308.575000",
    "150310.575000",
    "150312.575000",
    "150314.575000",
    "150316.575000",
    "150318.575000",
    "150320.574000",
    "150322.574000",
    "150324.575000",
    "150326.576000",
    "150328.575000",
    "150330.575000",
    "150332.574000",
    "150334.574000",
    "150336.575000",
    "150338.574000",
    "150340.575000",
    "150342.575000",
    "150344.575000",
    "150346.574000",
    "150348.574000",
    "150350.575000",
    "150352.574000",
    "150354.574000",
    "150356.574000",
    "150358.575000",
    "150400.576000",
    "150402.575000",
    "150404.574000",
    "150406.574000",
    "150408.575000",
    "150410.575000",
    "150412.574000",
    "150414.575000",
    "150416.575000",
    "150418.575000",
    "150420.575000",
    "150422.574000",
    "150424.575000",
    "150426.574000",
    "150428.574000",
    "150430.575000",
    "150432.575000",
    "150434.575000",
    "150436.575000",
    "150438.575000",
    "150440.575000",
    "150442.575000",
    "150444.574000",
    "150446.574000",
    "150448.575000",
    "150450.575000",
    "150452.576000",
    "150454.576000",
    "150456.574000",
    "150458.575000",
    "150500.574000",
    "150502.575000",
    "150504.575000",
    "150506.574000",
    "150508.576000",
    "150510.576000",
    "150512.574000",
    "150514.574000",
    "150516.574000",
    "150518.575000",
    "150520.574000",
    "150522.574000",
    "150524.575000",
    "150526.576000",
    "150528.575000",
    "150530.575000",
    "150532.575000",
    "150534.575000",
    "150536.575000",
    "150538.575000",
    "150540.574000",
    "150542.575000",
    "150544.576000",
    "150546.575000",
    "150548.575000",
    "150550.575000",
    "150552.574000",
    "150554.574000",
    "150556.574000",
    "150558.575000",
    "150600.575000",
    "150602.575000",
    "150604.576000",
    "150606.574000",
    "150608.575000",
    "150610.575000",
    "150612.574000",
    "150614.575000",
    "150616.575000",
    "150618.575000",
    "150620.343000"
   ],
   "InstanceNumber": [
    1,
    2,
    3,
    4,
    5,
    6,
    7,
    8,
    9,
    10,
    11,
    12,
    13,
    14,
    15,
    16,
    17,
    18,
    19,
    20,
    21,
    22,
    23,
    24,
    25,
    26,
    27,
    28,
    29,
    30,
    31,
    32,
    33,
    34,
    35,
    36,
    37,
    38,
    39,
    40,
    41,
    42,
    43,
    44,
    45,
    46,
    47,
    48,
    49,
    50,
    51,
    52,
    53,
    54,
    55,
    56,
    57,
    58,
    59,
    60,
    61,
    62,
    63,
    64,
    65,
    66,
    67,
    68,
    69,
    70,
    71,
    72,
    73,
    74,
    75,
    76,
    77,
    78,
    79,
    80,
    81,
    82,
    83,
    84,
    85,
    86,
    87,
    88,
    89,
    90,
    91,
    92,
    93,
    94,
    95,
    96,
    97,
    98,
    99,
    100,
    101,
    102,
    103,
    104,
    105,
    106,
    107,
    108,
    109,
    110,
    111,
    112,
    113,
    114,
    115,
    116,
    117,
    118,
    119,
    120,
    121,
    122,
    123,
    124,
    125,
    126,
    127,
    128,
    129,
    130,
    131,
    132,
    133,
    134,
    135,
    136,
    137,
    138,
    139,
    140,
    141,
    142,
    143,
    144,
    145,
    146,
    147,
    148,
    149,
    150
   ],
   "LargestImagePixelValue": [
    2299,
    2232,
    2191,
    2190,
    2189,
    2184,
    2197,
    2185,
    2186,
    2189,
    2207,
    2192,
    2225,
    2190,
    2194,
    2360,
    2226,
    2203,
    2213,
    2170,
    2286,
    2262,
    2204,
    2182,
    2179,
    2186,
    2192,
    2203,
    2225,
    2220,
    2210,
    2190,
    2250,
    2237,
    2253,
    2190,
    2326,
    2225,
    2298,
    2370,
    2245,
    2224,
    2227,
    2511,
    2214,
    2224,
    2202,
    2204,
    2205,
    2205,
    2230,
    2235,
    2228,
    2275,
    2254,
    2220,
    2239,
    2248,
    2228,
    2234,
    2208,
    2231,
    2225,
    2229,
    2259,
    2257,
    2237,
    2271,
    2248,
    2256,
    2230,
    2232,
    2305,
    2248,
    2270,
    2278,
    2242,
    2279,
    2262,
    2284,
    2281,
    2271,
    2265,
    2255,
    2283,
    2268,
    2285,
    2245,
    2257,
    2231,
    2241,
    2581,
    2272,
    2263,
    2263,
    2265,
    2281,
    2284,
    2281,
    2245,
    2337,
    2289,
    2287,
    2285,
    2247,
    2249,
    2272,
    2264,
    2250,
    2283,
    2233,
    2236,
    2264,
    2250,
    2247,
    2246,
    2263,
    2265,
    2243,
    2269,
    2271,
    2266,
    2274,
    2305,
    2269,
    2268,
    2282,
    2304,
    2267,
    2297,
    2282,
    2299,
    2399,
    2283,
    2296,
    2270,
    2300,
    2317,
    2302,
    2312,
    2312,
    2302,
    2275,
    2276,
    2298,
    2276,
    2693,
    2311,
    2304,
    2344
   ],
   "WindowCenter": [
    719.0,
    718.0,
    718.0,
    719.0,
    719.0,
    718.0,
    718.0,
    717.0,
    717.0,
    717.0,
    718.0,
    719.0,
    718.0,
    717.0,
    717.0,
    719.0,
    717.0,
    717.0,
    717.0,
    716.0,
    718.0,
    718.0,
    717.0,
    716.0,
    716.0,
    716.0,
    716.0,
    716.0,
    717.0,
    717.0,
    716.0,
    714.0,
    715.0,
    716.0,
    717.0,
    716.0,
    717.0,
    716.0,
    717.0,
    719.0,
    717.0,
    718.0,
    718.0,
    722.0,
    717.0,
    717.0,
    717.0,
    717.0,
    715.0,
    715.0,
    716.0,
    717.0,
    717.0,
    718.0,
    718.0,
    716.0,
    716.0,
    716.0,
    716.0,
    717.0,
    716.0,
    716.0,
    716.0,
    717.0,
    718.0,
    718.0,
    718.0,
    718.0,
    717.0,
    717.0,
    717.0,
    717.0,
    718.0,
    717.0,
    718.0,
    718.0,
    717.0,
    717.0,
    717.0,
    718.0,
    717.0,
    717.0,
    717.0,
    717.0,
    717.0,
    717.0,
    718.0,
    717.0,
    718.0,
    718.0,
    718.0,
    722.0,
    718.0,
    719.0,
    719.0,
    718.0,
    718.0,
    719.0,
    719.0,
    718.0,
    719.0,
    718.0,
    718.0,
    719.0,
    718.0,
    718.0,
    719.0,
    718.0,
    718.0,
    718.0,
    716.0,
    717.0,
    718.0,
    719.0,
    719.0,
    718.0,
    717.0,
    717.0,
    717.0,
    718.0,
    718.0,
    718.0,
    719.0,
    718.0,
    718.0,
    718.0,
    718.0,
    718.0,
    717.0,
    718.0,
    718.0,
    717.0,
    718.0,
    717.0,
    718.0,
    717.0,
    718.0,
    718.0,
    718.0,
    719.0,
    718.0,
    718.0,
    720.0,
    721.0,
    720.0,
    719.0,
    723.0,
    719.0,
    718.0,
    719.0
   ],
   "WindowWidth": [
    1529.0,
    1526.0,
    1528.0,
    1530.0,
    1528.0,
    1527.0,
    1527.0,
    1524.0,
    1524.0,
    1525.0,
    1527.0,
    1529.0,
    1527.0,
    1524.0,
    1523.0,
    1529.0,
    1525.0,
    1523.0,
    1523.0,
    1522.0,
    1527.0,
    1526.0,
    1523.0,
    1522.0,
    1522.0,
    1522.0,
    1522.0,
    1522.0,
    1525.0,
    1524.0,
    1520.0,
    1517.0,
    1519.0,
    1521.0,
    1523.0,
    1521.0,
    1524.0,
    1521.0,
    1524.0,
    1527.0,
    1525.0,
    1526.0,
    1525.0,
    1534.0,
    1524.0,
    1525.0,
    1524.0,
    1523.0,
    1520.0,
    1519.0,
    1521.0,
    1523.0,
    1524.0,
    1526.0,
    1525.0,
    1522.0,
    1521.0,
    1522.0,
    1522.0,
    1523.0,
    1520.0,
    1522.0,
    1522.0,
    1525.0,
    1526.0,
    1527.0,
    1527.0,
    1527.0,
    1524.0,
    1524.0,
    1524.0,
    1522.0,
    1525.0,
    1524.0,
    1526.0,
    1525.0,
    1524.0,
    1524.0,
    1524.0,
    1525.0,
    1524.0,
    1523.0,
    1523.0,
    1524.0,
    1524.0,
    1524.0,
    1525.0,
    1524.0,
    1526.0,
    1526.0,
    1526.0,
    1535.0,
    1527.0,
    1528.0,
    1529.0,
    1527.0,
    1526.0,
    1529.0,
    1529.0,
    1526.0,
    1528.0,
    1525.0,
    1527.0,
    1529.0,
    1526.0,
    1526.0,
    1527.0,
    1526.0,
    1525.0,
    1525.0,
    1522.0,
    1524.0,
    1527.0,
    1529.0,
    1528.0,
    1525.0,
    1524.0,
    1523.0,
    1523.0,
    1525.0,
    1527.0,
    1527.0,
    1527.0,
    1527.0,
    1525.0,
    1525.0,
    1526.0,
    1526.0,
    1523.0,
    1526.0,
    1525.0,
    1523.0,
    1526.0,
    1524.0,
    1525.0,
    1524.0,
    1525.0,
    1526.0,
    1527.0,
    1527.0,
    1526.0,
    1527.0,
    1531.0,
    1533.0,
    1531.0,
    1527.0,
    1537.0,
    1527.0,
    1527.0,
    1529.0
   ]
  },
  "slices": {}
 }
}