{
  "AcquisitionMatrixPE": 100,
  "AcquisitionNumber": 1,
  "AcquisitionTime": "16:15:2.667500",
  "BandwidthPerPixelPhaseEncode": 18.519,
  "BaseResolution": 100,
  "BodyPartExamined": "BRAIN",
  "ConsistencyInfo": "N4_VE11C_LATEST_20160120",
  "ConversionSoftware": "dcm2niix",
  "ConversionSoftwareVersion": "v1.0.20180622 GCC4.9.2",
  "DerivedVendorReportedEchoSpacing": 0.000539986,
  "DeviceSerialNumber": "166078",
  "DwellTime": 2.1e-06,
  "EchoTime": 0.034,
  "EchoTrainLength": 100,
  "EffectiveEchoSpacing": 0.000539986,
  "FlipAngle": 90,
  "ImageOrientationPatientDICOM": [0.999864, -0.0133867, 0.00958516, 0.0139616, 0.997937, -0.0626628],
  "ImageType": [
    "ORIGINAL",
    "PRIMARY",
    "M",
    "ND",
    "MOSAIC"
],
  "InPlanePhaseEncodingDirectionDICOM": "COL",
  "InstitutionAddress": "Street_StreetNo_Bei_Jing_District_CN_ZIP",
  "InstitutionName": "BeiJing_Normal_University",
  "InstitutionalDepartmentName": "Department",
  "MRAcquisitionType": "2D",
  "MagneticFieldStrength": 3,
  "Manufacturer": "Siemens",
  "ManufacturersModelName": "Prisma",
  "Modality": "MR",
  "MultibandAccelerationFactor": 3,
  "PartialFourier": 1,
  "PatientPosition": "HFS",
  "PercentPhaseFOV": 100,
  "PhaseEncodingDirection": "j-",
  "PhaseEncodingSteps": 100,
  "PhaseResolution": 1,
  "PixelBandwidth": 2380,
  "ProcedureStepDescription": "BNU_P2018_64CH_Zhen.ZongLei",
  "ProtocolName": "bold_100x100_s3_2x2x2_retino_150",
  "PulseSequenceDetails": "%SiemensSeq%_ep2d_bold",
  "ReceiveCoilActiveElements": "HC1-7;NC1",
  "ReceiveCoilName": "HeadNeck_64",
  "ReconMatrixPE": 100,
  "RepetitionTime": 2,
  "SAR": 0.0722816,
  "ScanOptions": "FS",
  "ScanningSequence": "EP",
  "SequenceName": "_epfid2d1_100",
  "SequenceVariant": "SK",
  "SeriesDescription": "bold_100x100_s3_2x2x2_retino_150",
  "SeriesNumber": 17,
  "ShimSetting": [-5459, -11506, -1280, 608, -4, -239, -16, 57],
  "SliceThickness": 2,
  "SliceTiming": [1.485, 0, 0.99, 0.0825, 1.0725, 0.165, 1.155, 0.2475, 1.2375, 0.33, 1.32, 0.4125, 1.4025, 0.5775, 1.5675, 0.66, 1.65, 0.7425, 1.7325, 0.825, 1.815, 0.9075, 1.8975, 0.495, 1.485, 0, 0.99, 0.0825, 1.0725, 0.165, 1.155, 0.2475, 1.2375, 0.33, 1.32, 0.4125, 1.4025, 0.5775, 1.5675, 0.66, 1.65, 0.7425, 1.7325, 0.825, 1.815, 0.9075, 1.8975, 0.495, 1.485, 0, 0.99, 0.0825, 1.0725, 0.165, 1.155, 0.2475, 1.2375, 0.33, 1.32, 0.4125, 1.4025, 0.5775, 1.5675, 0.66, 1.65, 0.7425, 1.7325, 0.825, 1.815, 0.9075, 1.8975, 0.495],
  "SoftwareVersions": "syngo_MR_E11",
  "SpacingBetweenSlices": 2,
  "StationName": "AWP166078",
  "TaskName": "retinotopy",
  "TotalReadoutTime": 0.0534586,
  "TxRefAmp": 210.95,
  "dcmmeta_affine": [
    [-1.9997289180755615, 0.027923252433538437, 0.01745307445526123, 97.99861907958984],
    [0.02677343226969242, 1.9958741664886475, -0.12557625770568848, -79.12895965576172],
    [0.01917031966149807, 0.12532559037208557, 1.995977520942688, -77.33649444580078],
    [0.0, 0.0, 0.0, 1.0]
],
  "dcmmeta_reorient_transform": [
    [0.0, -1.0, 0.0, 99.0],
    [1.0, 0.0, 0.0, 0.0],
    [0.0, 0.0, 1.0, 0.0],
    [0.0, 0.0, 0.0, 1.0]
],
  "dcmmeta_shape": [100, 100, 72, 150],
  "dcmmeta_slice_dim": 2,
  "dcmmeta_version": 0.6,
  "global": {
    "const": {
      "AcquisitionMatrix": [100, 0, 0, 100],
      "AngioFlag": "N",
      "BitsAllocated": 16,
      "BitsStored": 12,
      "BodyPartExamined": "BRAIN",
      "Columns": 900,
      "EchoNumbers": 1,
      "EchoTime": 34.0,
      "EchoTrainLength": 100,
      "FlipAngle": 90.0,
      "HighBit": 11,
      "ImageOrientationPatient": [0.99986445108199, -0.0133867164992, 0.00958515956505, 0.01396162637604, 0.99793709563415, -0.0626627971465],
      "ImagePositionPatient": [-911.82388568827, -906.10289050738, -22.467148576603],
      "ImageType": [
        "ORIGINAL",
        "PRIMARY",
        "M",
        "ND",
        "MOSAIC"
],
      "ImagedNucleus": "1H",
      "ImagingFrequency": 123.257769,
      "InPlanePhaseEncodingDirection": "COL",
      "MRAcquisitionType": "2D",
      "MagneticFieldStrength": 3.0,
      "Manufacturer": "SIEMENS",
      "ManufacturerModelName": "Prisma",
      "Modality": "MR",
      "NumberOfAverages": 1.0,
      "NumberOfPhaseEncodingSteps": 100,
      "PercentPhaseFieldOfView": 100.0,
      "PercentSampling": 100.0,
      "PerformedProcedureStepStartTime": "145752.075000",
      "PhotometricInterpretation": "MONOCHROME2",
      "PixelBandwidth": 2380.0,
      "PixelRepresentation": 0,
      "PixelSpacing": [2.0, 2.0],
      "ProtocolName": "bold_100x100_s3_2x2x2_retino_150",
      "RepetitionTime": 2000.0,
      "Rows": 900,
      "SAR": 0.07228158101174,
      "SamplesPerPixel": 1,
      "ScanOptions": "FS",
      "ScanningSequence": "EP",
      "SequenceName": "*epfid2d1_100",
      "SequenceVariant": "SK",
      "SeriesDescription": "bold_100x100_s3_2x2x2_retino_150",
      "SeriesNumber": 17,
      "SeriesTime": "161505.435000",
      "SliceLocation": -71.357399932637,
      "SliceThickness": 2.0,
      "SmallestImagePixelValue": 0,
      "SoftwareVersions": "syngo MR E11",
      "SpacingBetweenSlices": 2.0000000292461,
      "SpecificCharacterSet": "ISO_IR 100",
      "StudyID": "1",
      "StudyTime": "145751.984000",
      "TransmitCoilName": "Body",
      "VariableFlipAngleFlag": "N",
      "WindowCenterWidthExplanation": "Algo1",
      "dBdt": 0.0},
    "slices": {}
  },
  "time": {
    "samples": {
      "AcquisitionNumber": [1, 2, 3, 4, 5, 6, 7, 8, 9, 10, 11, 12, 13, 14, 15, 16, 17, 18, 19, 20, 21, 22, 23, 24, 25, 26, 27, 28, 29, 30, 31, 32, 33, 34, 35, 36, 37, 38, 39, 40, 41, 42, 43, 44, 45, 46, 47, 48, 49, 50, 51, 52, 53, 54, 55, 56, 57, 58, 59, 60, 61, 62, 63, 64, 65, 66, 67, 68, 69, 70, 71, 72, 73, 74, 75, 76, 77, 78, 79, 80, 81, 82, 83, 84, 85, 86, 87, 88, 89, 90, 91, 92, 93, 94, 95, 96, 97, 98, 99, 100, 101, 102, 103, 104, 105, 106, 107, 108, 109, 110, 111, 112, 113, 114, 115, 116, 117, 118, 119, 120, 121, 122, 123, 124, 125, 126, 127, 128, 129, 130, 131, 132, 133, 134, 135, 136, 137, 138, 139, 140, 141, 142, 143, 144, 145, 146, 147, 148, 149, 150],
      "AcquisitionTime": ["161502.667500", "161504.667500", "161506.667500", "161508.667500", "161510.667500", "161512.667500", "161514.667500", "161516.667500", "161518.667500", "161520.667500", "161522.667500", "161524.667500", "161526.667500", "161528.667500", "161530.667500", "161532.667500", "161534.667500", "161536.667500", "161538.667500", "161540.667500", "161542.667500", "161544.667500", "161546.667500", "161548.667500", "161550.667500", "161552.667500", "161554.667500", "161556.667500", "161558.667500", "161600.667500", "161602.667500", "161604.667500", "161606.667500", "161608.667500", "161610.667500", "161612.667500", "161614.667500", "161616.667500", "161618.667500", "161620.667500", "161622.667500", "161624.667500", "161626.667500", "161628.667500", "161630.667500", "161632.667500", "161634.667500", "161636.667500", "161638.667500", "161640.667500", "161642.667500", "161644.667500", "161646.667500", "161648.667500", "161650.667500", "161652.667500", "161654.667500", "161656.667500", "161658.667500", "161700.667500", "161702.667500", "161704.667500", "161706.667500", "161708.667500", "161710.667500", "161712.667500", "161714.667500", "161716.667500", "161718.667500", "161720.667500", "161722.667500", "161724.667500", "161726.667500", "161728.667500", "161730.667500", "161732.667500", "161734.667500", "161736.667500", "161738.667500", "161740.667500", "161742.667500", "161744.667500", "161746.667500", "161748.667500", "161750.667500", "161752.667500", "161754.667500", "161756.667500", "161758.667500", "161800.667500", "161802.667500", "161804.667500", "161806.667500", "161808.667500", "161810.667500", "161812.667500", "161814.667500", "161816.667500", "161818.667500", "161820.667500", "161822.667500", "161824.667500", "161826.667500", "161828.667500", "161830.667500", "161832.667500", "161834.667500", "161836.667500", "161838.667500", "161840.667500", "161842.667500", "161844.667500", "161846.667500", "161848.667500", "161850.667500", "161852.667500", "161854.667500", "161856.667500", "161858.667500", "161900.667500", "161902.667500", "161904.667500", "161906.667500", "161908.667500", "161910.667500", "161912.667500", "161914.667500", "161916.667500", "161918.667500", "161920.667500", "161922.667500", "161924.667500", "161926.667500", "161928.667500", "161930.667500", "161932.667500", "161934.667500", "161936.667500", "161938.667500", "161940.667500", "161942.667500", "161944.667500", "161946.667500", "161948.667500", "161950.667500", "161952.667500", "161954.667500", "161956.667500", "161958.667500", "162000.667500"],
      "ContentTime": ["161505.438000", "161506.934000", "161508.933000", "161510.934000", "161512.934000", "161514.932000", "161516.933000", "161518.933000", "161520.933000", "161522.934000", "161524.933000", "161526.933000", "161528.934000", "161530.933000", "161532.932000", "161534.932000", "161536.932000", "161538.933000", "161540.933000", "161542.933000", "161544.933000", "161546.934000", "161548.933000", "161550.932000", "161552.932000", "161554.932000", "161556.934000", "161558.934000", "161600.933000", "161602.934000", "161604.933000", "161606.932000", "161608.933000", "161610.933000", "161612.932000", "161614.933000", "161616.934000", "161618.934000", "161620.933000", "161622.934000", "161624.933000", "161626.932000", "161628.933000", "161630.932000", "161632.933000", "161634.934000", "161636.933000", "161638.934000", "161640.932000", "161642.933000", "161644.933000", "161646.932000", "161648.934000", "161650.933000", "161652.933000", "161654.934000", "161656.934000", "161658.933000", "161700.932000", "161702.933000", "161704.932000", "161706.934000", "161708.934000", "161710.933000", "161712.933000", "161714.933000", "161716.933000", "161718.933000", "161720.932000", "161722.933000", "161724.934000", "161726.933000", "161728.934000", "161730.934000", "161732.933000", "161734.933000", "161736.932000", "161738.933000", "161740.932000", "161742.933000", "161744.934000", "161746.934000", "161748.933000", "161750.933000", "161752.933000", "161754.932000", "161756.933000", "161758.933000", "161800.933000", "161802.934000", "161804.933000", "161806.934000", "161808.933000", "161810.932000", "161812.933000", "161814.932000", "161816.933000", "161818.934000", "161820.933000", "161822.934000", "161824.933000", "161826.932000", "161828.933000", "161830.932000", "161832.933000", "161834.934000", "161836.934000", "161838.934000", "161840.933000", "161842.933000", "161844.933000", "161846.933000", "161848.932000", "161850.932000", "161852.933000", "161854.934000", "161856.934000", "161858.934000", "161900.933000", "161902.932000", "161904.932000", "161906.933000", "161908.933000", "161910.934000", "161912.934000", "161914.933000", "161916.933000", "161918.933000", "161920.932000", "161922.932000", "161924.932000", "161926.934000", "161928.933000", "161930.934000", "161932.933000", "161934.934000", "161936.932000", "161938.932000", "161940.933000", "161942.932000", "161944.934000", "161946.933000", "161948.934000", "161950.942000", "161952.933000", "161954.932000", "161956.933000", "161958.932000", "162000.933000", "162002.576000"],
      "InstanceCreationTime": ["161505.438000", "161506.934000", "161508.933000", "161510.934000", "161512.934000", "161514.932000", "161516.933000", "161518.933000", "161520.933000", "161522.934000", "161524.933000", "161526.933000", "161528.934000", "161530.933000", "161532.932000", "161534.932000", "161536.932000", "161538.933000", "161540.933000", "161542.933000", "161544.933000", "161546.934000", "161548.933000", "161550.932000", "161552.932000", "161554.932000", "161556.934000", "161558.934000", "161600.933000", "161602.934000", "161604.933000", "161606.932000", "161608.933000", "161610.933000", "161612.932000", "161614.933000", "161616.934000", "161618.934000", "161620.933000", "161622.934000", "161624.933000", "161626.932000", "161628.933000", "161630.932000", "161632.933000", "161634.934000", "161636.933000", "161638.934000", "161640.932000", "161642.933000", "161644.933000", "161646.932000", "161648.934000", "161650.933000", "161652.933000", "161654.934000", "161656.934000", "161658.933000", "161700.932000", "161702.933000", "161704.932000", "161706.934000", "161708.934000", "161710.933000", "161712.933000", "161714.933000", "161716.933000", "161718.933000", "161720.932000", "161722.933000", "161724.934000", "161726.933000", "161728.934000", "161730.934000", "161732.933000", "161734.933000", "161736.932000", "161738.933000", "161740.932000", "161742.933000", "161744.934000", "161746.934000", "161748.933000", "161750.933000", "161752.933000", "161754.932000", "161756.933000", "161758.933000", "161800.933000", "161802.934000", "161804.933000", "161806.934000", "161808.933000", "161810.932000", "161812.933000", "161814.932000", "161816.933000", "161818.934000", "161820.933000", "161822.934000", "161824.933000", "161826.932000", "161828.933000", "161830.932000", "161832.933000", "161834.934000", "161836.934000", "161838.934000", "161840.933000", "161842.933000", "161844.933000", "161846.933000", "161848.932000", "161850.932000", "161852.933000", "161854.934000", "161856.934000", "161858.934000", "161900.933000", "161902.932000", "161904.932000", "161906.933000", "161908.933000", "161910.934000", "161912.934000", "161914.933000", "161916.933000", "161918.933000", "161920.932000", "161922.932000", "161924.932000", "161926.934000", "161928.933000", "161930.934000", "161932.933000", "161934.934000", "161936.932000", "161938.932000", "161940.933000", "161942.932000", "161944.934000", "161946.933000", "161948.934000", "161950.942000", "161952.933000", "161954.932000", "161956.933000", "161958.932000", "162000.933000", "162002.576000"],
      "InstanceNumber": [1, 2, 3, 4, 5, 6, 7, 8, 9, 10, 11, 12, 13, 14, 15, 16, 17, 18, 19, 20, 21, 22, 23, 24, 25, 26, 27, 28, 29, 30, 31, 32, 33, 34, 35, 36, 37, 38, 39, 40, 41, 42, 43, 44, 45, 46, 47, 48, 49, 50, 51, 52, 53, 54, 55, 56, 57, 58, 59, 60, 61, 62, 63, 64, 65, 66, 67, 68, 69, 70, 71, 72, 73, 74, 75, 76, 77, 78, 79, 80, 81, 82, 83, 84, 85, 86, 87, 88, 89, 90, 91, 92, 93, 94, 95, 96, 97, 98, 99, 100, 101, 102, 103, 104, 105, 106, 107, 108, 109, 110, 111, 112, 113, 114, 115, 116, 117, 118, 119, 120, 121, 122, 123, 124, 125, 126, 127, 128, 129, 130, 131, 132, 133, 134, 135, 136, 137, 138, 139, 140, 141, 142, 143, 144, 145, 146, 147, 148, 149, 150],
      "LargestImagePixelValue": [2346, 2348, 2317, 2290, 2312, 2308, 2312, 2311, 2298, 2253, 2329, 2319, 2301, 2297, 2317, 2383, 2347, 2329, 2320, 2310, 2305, 2316, 2297, 2335, 2317, 2331, 2289, 2304, 2313, 2323, 2309, 2313, 2312, 2301, 2308, 2340, 2296, 2304, 2300, 2337, 2317, 2313, 2317, 2305, 2317, 2298, 2340, 2315, 2316, 2599, 2552, 2348, 2311, 2328, 2306, 2363, 2327, 2301, 2291, 2315, 2295, 2316, 2310, 2326, 2317, 2315, 2332, 2303, 2321, 2323, 2327, 2316, 2307, 2356, 2315, 2336, 2339, 2313, 2311, 2306, 2317, 2319, 2308, 2315, 2295, 2286, 2300, 2329, 2285, 2336, 2307, 2291, 2323, 2326, 2318, 2303, 2320, 2323, 2323, 2369, 2302, 2315, 2322, 2330, 2343, 2330, 2332, 2324, 2342, 2326, 2316, 2344, 2321, 2313, 2341, 2341, 2332, 2304, 2329, 2338, 2321, 2329, 2351, 2329, 2330, 2324, 2319, 2326, 2339, 2326, 2324, 2373, 2331, 2332, 2451, 2342, 2338, 2322, 2325, 2328, 2333, 2333, 2336, 2309, 2336, 2323, 2323, 2341, 2303, 2302],
      "WindowCenter": [728.0, 727.0, 727.0, 727.0, 726.0, 726.0, 726.0, 725.0, 723.0, 722.0, 723.0, 724.0, 724.0, 724.0, 725.0, 726.0, 726.0, 726.0, 725.0, 726.0, 726.0, 726.0, 726.0, 726.0, 726.0, 726.0, 725.0, 726.0, 727.0, 726.0, 725.0, 726.0, 726.0, 726.0, 726.0, 726.0, 725.0, 725.0, 726.0, 727.0, 727.0, 727.0, 726.0, 725.0, 726.0, 726.0, 727.0, 727.0, 727.0, 731.0, 730.0, 726.0, 725.0, 726.0, 726.0, 727.0, 726.0, 725.0, 723.0, 724.0, 725.0, 727.0, 727.0, 727.0, 726.0, 725.0, 725.0, 725.0, 726.0, 725.0, 725.0, 725.0, 725.0, 726.0, 725.0, 726.0, 727.0, 726.0, 726.0, 726.0, 727.0, 726.0, 725.0, 726.0, 726.0, 727.0, 726.0, 726.0, 725.0, 725.0, 722.0, 722.0, 722.0, 723.0, 724.0, 724.0, 726.0, 727.0, 728.0, 728.0, 727.0, 728.0, 728.0, 728.0, 728.0, 728.0, 728.0, 728.0, 728.0, 728.0, 728.0, 728.0, 727.0, 727.0, 727.0, 727.0, 727.0, 727.0, 728.0, 728.0, 728.0, 727.0, 727.0, 727.0, 727.0, 726.0, 727.0, 727.0, 727.0, 727.0, 726.0, 728.0, 728.0, 729.0, 729.0, 727.0, 728.0, 727.0, 727.0, 728.0, 728.0, 727.0, 727.0, 726.0, 726.0, 725.0, 725.0, 727.0, 726.0, 727.0],
      "WindowWidth": [1549.0, 1548.0, 1548.0, 1547.0, 1546.0, 1545.0, 1544.0, 1541.0, 1536.0, 1534.0, 1537.0, 1540.0, 1540.0, 1540.0, 1541.0, 1545.0, 1545.0, 1544.0, 1543.0, 1544.0, 1545.0, 1546.0, 1545.0, 1546.0, 1544.0, 1543.0, 1543.0, 1546.0, 1548.0, 1546.0, 1543.0, 1544.0, 1544.0, 1544.0, 1544.0, 1544.0, 1542.0, 1543.0, 1544.0, 1547.0, 1548.0, 1547.0, 1545.0, 1544.0, 1544.0, 1544.0, 1547.0, 1546.0, 1547.0, 1556.0, 1554.0, 1546.0, 1544.0, 1544.0, 1544.0, 1548.0, 1546.0, 1542.0, 1538.0, 1540.0, 1543.0, 1547.0, 1548.0, 1547.0, 1545.0, 1541.0, 1542.0, 1543.0, 1544.0, 1543.0, 1543.0, 1543.0, 1542.0, 1545.0, 1544.0, 1546.0, 1546.0, 1545.0, 1544.0, 1545.0, 1548.0, 1546.0, 1544.0, 1544.0, 1546.0, 1547.0, 1546.0, 1544.0, 1543.0, 1541.0, 1536.0, 1534.0, 1534.0, 1536.0, 1538.0, 1539.0, 1543.0, 1547.0, 1549.0, 1549.0, 1547.0, 1549.0, 1550.0, 1550.0, 1549.0, 1550.0, 1549.0, 1550.0, 1551.0, 1550.0, 1550.0, 1549.0, 1549.0, 1547.0, 1546.0, 1548.0, 1548.0, 1548.0, 1550.0, 1551.0, 1549.0, 1548.0, 1547.0, 1546.0, 1546.0, 1544.0, 1546.0, 1547.0, 1547.0, 1547.0, 1544.0, 1549.0, 1551.0, 1552.0, 1552.0, 1549.0, 1549.0, 1548.0, 1548.0, 1549.0, 1549.0, 1547.0, 1546.0, 1544.0, 1545.0, 1543.0, 1543.0, 1546.0, 1545.0, 1547.0]
    },
    "slices": {}
  }
}