{
 "AcquisitionMatrixPE": 100,
 "AcquisitionNumber": 1,
 "AcquisitionTime": "15:45:22.640000",
 "BandwidthPerPixelPhaseEncode": 18.519,
 "BaseResolution": 100,
 "BodyPartExamined": "BRAIN",
 "ConsistencyInfo": "N4_VE11C_LATEST_20160120",
 "ConversionSoftware": "dcm2niix",
 "ConversionSoftwareVersion": "v1.0.20180622 GCC4.9.2",
 "DerivedVendorReportedEchoSpacing": 0.000539986,
 "DeviceSerialNumber": "166078",
 "DwellTime": 2.1e-06,
 "EchoTime": 0.034,
 "EchoTrainLength": 100,
 "EffectiveEchoSpacing": 0.000539986,
 "FlipAngle": 90,
 "ImageOrientationPatientDICOM": [
  0.999864,
  -0.0133867,
  0.00958516,
  0.0139616,
  0.997937,
  -0.0626628
 ],
 "ImageType": [
  "ORIGINAL",
  "PRIMARY",
  "M",
  "ND",
  "MOSAIC"
 ],
 "InPlanePhaseEncodingDirectionDICOM": "COL",
 "InstitutionAddress": "Street_StreetNo_Bei_Jing_District_CN_ZIP",
 "InstitutionName": "BeiJing_Normal_University",
 "InstitutionalDepartmentName": "Department",
 "MRAcquisitionType": "2D",
 "MagneticFieldStrength": 3,
 "Manufacturer": "Siemens",
 "ManufacturersModelName": "Prisma",
 "Modality": "MR",
 "MultibandAccelerationFactor": 3,
 "PartialFourier": 1,
 "PatientPosition": "HFS",
 "PercentPhaseFOV": 100,
 "PhaseEncodingDirection": "j-",
 "PhaseEncodingSteps": 100,
 "PhaseResolution": 1,
 "PixelBandwidth": 2380,
 "ProcedureStepDescription": "BNU_P2018_64CH_Zhen.ZongLei",
 "ProtocolName": "bold_100x100_s3_2x2x2_retino_150",
 "PulseSequenceDetails": "%SiemensSeq%_ep2d_bold",
 "ReceiveCoilActiveElements": "HC1-7;NC1",
 "ReceiveCoilName": "HeadNeck_64",
 "ReconMatrixPE": 100,
 "RepetitionTime": 2,
 "SAR": 0.0722816,
 "ScanOptions": "FS",
 "ScanningSequence": "EP",
 "SequenceName": "_epfid2d1_100",
 "SequenceVariant": "SK",
 "SeriesDescription": "bold_100x100_s3_2x2x2_retino_150",
 "SeriesNumber": 12,
 "ShimSetting": [
  -5459,
  -11506,
  -1280,
  608,
  -4,
  -239,
  -16,
  57
 ],
 "SliceThickness": 2,
 "SliceTiming": [
  1.485,
  0,
  0.99,
  0.0825,
  1.0725,
  0.165,
  1.155,
  0.2475,
  1.2375,
  0.33,
  1.32,
  0.4125,
  1.4025,
  0.5775,
  1.5675,
  0.66,
  1.65,
  0.7425,
  1.7325,
  0.825,
  1.815,
  0.9075,
  1.8975,
  0.495,
  1.485,
  0,
  0.99,
  0.0825,
  1.0725,
  0.165,
  1.155,
  0.2475,
  1.2375,
  0.33,
  1.32,
  0.4125,
  1.4025,
  0.5775,
  1.5675,
  0.66,
  1.65,
  0.7425,
  1.7325,
  0.825,
  1.815,
  0.9075,
  1.8975,
  0.495,
  1.485,
  0,
  0.99,
  0.0825,
  1.0725,
  0.165,
  1.155,
  0.2475,
  1.2375,
  0.33,
  1.32,
  0.4125,
  1.4025,
  0.5775,
  1.5675,
  0.66,
  1.65,
  0.7425,
  1.7325,
  0.825,
  1.815,
  0.9075,
  1.8975,
  0.495
 ],
 "SoftwareVersions": "syngo_MR_E11",
 "SpacingBetweenSlices": 2,
 "StationName": "AWP166078",
 "TaskName": "prf",
 "TotalReadoutTime": 0.0534586,
 "TxRefAmp": 210.95,
 "dcmmeta_affine": [
  [
   -1.9997289180755615,
   0.027923252433538437,
   0.01745307445526123,
   97.99861907958984
  ],
  [
   0.02677343226969242,
   1.9958741664886475,
   -0.12557625770568848,
   -79.12895965576172
  ],
  [
   0.01917031966149807,
   0.12532559037208557,
   1.995977520942688,
   -77.33649444580078
  ],
  [
   0.0,
   0.0,
   0.0,
   1.0
  ]
 ],
 "dcmmeta_reorient_transform": [
  [
   0.0,
   -1.0,
   0.0,
   99.0
  ],
  [
   1.0,
   0.0,
   0.0,
   0.0
  ],
  [
   0.0,
   0.0,
   1.0,
   0.0
  ],
  [
   0.0,
   0.0,
   0.0,
   1.0
  ]
 ],
 "dcmmeta_shape": [
  100,
  100,
  72,
  150
 ],
 "dcmmeta_slice_dim": 2,
 "dcmmeta_version": 0.6,
 "global": {
  "const": {
   "AcquisitionMatrix": [
    100,
    0,
    0,
    100
   ],
   "AngioFlag": "N",
   "BitsAllocated": 16,
   "BitsStored": 12,
   "BodyPartExamined": "BRAIN",
   "Columns": 900,
   "EchoNumbers": 1,
   "EchoTime": 34.0,
   "EchoTrainLength": 100,
   "FlipAngle": 90.0,
   "HighBit": 11,
   "ImageOrientationPatient": [
    0.99986445108199,
    -0.0133867164992,
    0.00958515956505,
    0.01396162637604,
    0.99793709563415,
    -0.0626627971465
   ],
   "ImagePositionPatient": [
    -911.82388568827,
    -906.10289050738,
    -22.467148576603
   ],
   "ImageType": [
    "ORIGINAL",
    "PRIMARY",
    "M",
    "ND",
    "MOSAIC"
   ],
   "ImagedNucleus": "1H",
   "ImagingFrequency": 123.257767,
   "InPlanePhaseEncodingDirection": "COL",
   "MRAcquisitionType": "2D",
   "MagneticFieldStrength": 3.0,
   "Manufacturer": "SIEMENS",
   "ManufacturerModelName": "Prisma",
   "Modality": "MR",
   "NumberOfAverages": 1.0,
   "NumberOfPhaseEncodingSteps": 100,
   "PercentPhaseFieldOfView": 100.0,
   "PercentSampling": 100.0,
   "PerformedProcedureStepStartTime": "145752.075000",
   "PhotometricInterpretation": "MONOCHROME2",
   "PixelBandwidth": 2380.0,
   "PixelRepresentation": 0,
   "PixelSpacing": [
    2.0,
    2.0
   ],
   "ProtocolName": "bold_100x100_s3_2x2x2_retino_150",
   "RepetitionTime": 2000.0,
   "Rows": 900,
   "SAR": 0.07228158101174,
   "SamplesPerPixel": 1,
   "ScanOptions": "FS",
   "ScanningSequence": "EP",
   "SequenceName": "*epfid2d1_100",
   "SequenceVariant": "SK",
   "SeriesDescription": "bold_100x100_s3_2x2x2_retino_150",
   "SeriesNumber": 12,
   "SeriesTime": "154525.686000",
   "SliceLocation": -71.357399932637,
   "SliceThickness": 2.0,
   "SmallestImagePixelValue": 0,
   "SoftwareVersions": "syngo MR E11",
   "SpacingBetweenSlices": 2.0000000292461,
   "SpecificCharacterSet": "ISO_IR 100",
   "StudyID": "1",
   "StudyTime": "145751.984000",
   "TransmitCoilName": "Body",
   "VariableFlipAngleFlag": "N",
   "WindowCenterWidthExplanation": "Algo1",
   "dBdt": 0.0
  },
  "slices": {}
 },
 "time": {
  "samples": {
   "AcquisitionNumber": [
    1,
    2,
    3,
    4,
    5,
    6,
    7,
    8,
    9,
    10,
    11,
    12,
    13,
    14,
    15,
    16,
    17,
    18,
    19,
    20,
    21,
    22,
    23,
    24,
    25,
    26,
    27,
    28,
    29,
    30,
    31,
    32,
    33,
    34,
    35,
    36,
    37,
    38,
    39,
    40,
    41,
    42,
    43,
    44,
    45,
    46,
    47,
    48,
    49,
    50,
    51,
    52,
    53,
    54,
    55,
    56,
    57,
    58,
    59,
    60,
    61,
    62,
    63,
    64,
    65,
    66,
    67,
    68,
    69,
    70,
    71,
    72,
    73,
    74,
    75,
    76,
    77,
    78,
    79,
    80,
    81,
    82,
    83,
    84,
    85,
    86,
    87,
    88,
    89,
    90,
    91,
    92,
    93,
    94,
    95,
    96,
    97,
    98,
    99,
    100,
    101,
    102,
    103,
    104,
    105,
    106,
    107,
    108,
    109,
    110,
    111,
    112,
    113,
    114,
    115,
    116,
    117,
    118,
    119,
    120,
    121,
    122,
    123,
    124,
    125,
    126,
    127,
    128,
    129,
    130,
    131,
    132,
    133,
    134,
    135,
    136,
    137,
    138,
    139,
    140,
    141,
    142,
    143,
    144,
    145,
    146,
    147,
    148,
    149,
    150
   ],
   "AcquisitionTime": [
    "154522.640000",
    "154524.640000",
    "154526.640000",
    "154528.640000",
    "154530.640000",
    "154532.640000",
    "154534.640000",
    "154536.640000",
    "154538.640000",
    "154540.640000",
    "154542.640000",
    "154544.640000",
    "154546.640000",
    "154548.640000",
    "154550.640000",
    "154552.640000",
    "154554.640000",
    "154556.640000",
    "154558.640000",
    "154600.640000",
    "154602.640000",
    "154604.640000",
    "154606.640000",
    "154608.640000",
    "154610.640000",
    "154612.640000",
    "154614.640000",
    "154616.640000",
    "154618.640000",
    "154620.640000",
    "154622.640000",
    "154624.640000",
    "154626.640000",
    "154628.640000",
    "154630.640000",
    "154632.640000",
    "154634.640000",
    "154636.640000",
    "154638.640000",
    "154640.640000",
    "154642.640000",
    "154644.640000",
    "154646.640000",
    "154648.640000",
    "154650.640000",
    "154652.640000",
    "154654.640000",
    "154656.640000",
    "154658.640000",
    "154700.640000",
    "154702.640000",
    "154704.640000",
    "154706.640000",
    "154708.640000",
    "154710.640000",
    "154712.640000",
    "154714.640000",
    "154716.640000",
    "154718.640000",
    "154720.640000",
    "154722.640000",
    "154724.640000",
    "154726.640000",
    "154728.640000",
    "154730.640000",
    "154732.640000",
    "154734.640000",
    "154736.640000",
    "154738.640000",
    "154740.640000",
    "154742.640000",
    "154744.640000",
    "154746.640000",
    "154748.640000",
    "154750.640000",
    "154752.640000",
    "154754.640000",
    "154756.640000",
    "154758.640000",
    "154800.640000",
    "154802.640000",
    "154804.640000",
    "154806.640000",
    "154808.640000",
    "154810.640000",
    "154812.640000",
    "154814.640000",
    "154816.640000",
    "154818.640000",
    "154820.640000",
    "154822.640000",
    "154824.640000",
    "154826.640000",
    "154828.640000",
    "154830.640000",
    "154832.640000",
    "154834.640000",
    "154836.640000",
    "154838.640000",
    "154840.640000",
    "154842.640000",
    "154844.640000",
    "154846.640000",
    "154848.640000",
    "154850.640000",
    "154852.640000",
    "154854.640000",
    "154856.640000",
    "154858.640000",
    "154900.640000",
    "154902.640000",
    "154904.640000",
    "154906.640000",
    "154908.640000",
    "154910.640000",
    "154912.640000",
    "154914.640000",
    "154916.640000",
    "154918.640000",
    "154920.640000",
    "154922.640000",
    "154924.640000",
    "154926.640000",
    "154928.640000",
    "154930.640000",
    "154932.640000",
    "154934.640000",
    "154936.640000",
    "154938.640000",
    "154940.640000",
    "154942.640000",
    "154944.640000",
    "154946.640000",
    "154948.640000",
    "154950.640000",
    "154952.640000",
    "154954.640000",
    "154956.640000",
    "154958.640000",
    "155000.640000",
    "155002.640000",
    "155004.640000",
    "155006.640000",
    "155008.640000",
    "155010.640000",
    "155012.640000",
    "155014.640000",
    "155016.640000",
    "155018.640000",
    "155020.640000"
   ],
   "ContentTime": [
    "154525.689000",
    "154527.179000",
    "154529.180000",
    "154531.179000",
    "154533.179000",
    "154535.179000",
    "154537.179000",
    "154539.180000",
    "154541.179000",
    "154543.179000",
    "154545.180000",
    "154547.179000",
    "154549.180000",
    "154551.178000",
    "154553.178000",
    "154555.178000",
    "154557.180000",
    "154559.179000",
    "154601.180000",
    "154603.179000",
    "154605.179000",
    "154607.180000",
    "154609.178000",
    "154611.178000",
    "154613.180000",
    "154615.180000",
    "154617.180000",
    "154619.180000",
    "154621.180000",
    "154623.180000",
    "154625.178000",
    "154627.179000",
    "154629.178000",
    "154631.180000",
    "154633.179000",
    "154635.180000",
    "154637.180000",
    "154639.179000",
    "154641.180000",
    "154643.179000",
    "154645.178000",
    "154647.178000",
    "154649.180000",
    "154651.180000",
    "154653.179000",
    "154655.179000",
    "154657.179000",
    "154659.180000",
    "154701.178000",
    "154703.178000",
    "154705.178000",
    "154707.180000",
    "154709.179000",
    "154711.179000",
    "154713.180000",
    "154715.180000",
    "154717.180000",
    "154719.178000",
    "154721.178000",
    "154723.180000",
    "154725.179000",
    "154727.179000",
    "154729.180000",
    "154731.180000",
    "154733.180000",
    "154735.178000",
    "154737.179000",
    "154739.178000",
    "154741.179000",
    "154743.180000",
    "154745.179000",
    "154747.180000",
    "154749.180000",
    "154751.180000",
    "154753.179000",
    "154755.178000",
    "154757.179000",
    "154759.180000",
    "154801.180000",
    "154803.180000",
    "154805.179000",
    "154807.180000",
    "154809.180000",
    "154811.178000",
    "154813.179000",
    "154815.179000",
    "154817.179000",
    "154819.180000",
    "154821.180000",
    "154823.180000",
    "154825.180000",
    "154827.179000",
    "154829.179000",
    "154831.179000",
    "154833.180000",
    "154835.179000",
    "154837.180000",
    "154839.180000",
    "154841.179000",
    "154843.179000",
    "154845.178000",
    "154847.179000",
    "154849.178000",
    "154851.179000",
    "154853.179000",
    "154855.180000",
    "154857.180000",
    "154859.179000",
    "154901.180000",
    "154903.179000",
    "154905.179000",
    "154907.178000",
    "154909.179000",
    "154911.180000",
    "154913.180000",
    "154915.180000",
    "154917.180000",
    "154919.180000",
    "154921.179000",
    "154923.179000",
    "154925.179000",
    "154927.180000",
    "154929.180000",
    "154931.179000",
    "154933.179000",
    "154935.179000",
    "154937.179000",
    "154939.178000",
    "154941.179000",
    "154943.179000",
    "154945.180000",
    "154947.180000",
    "154949.179000",
    "154951.179000",
    "154953.180000",
    "154955.179000",
    "154957.179000",
    "154959.178000",
    "155001.179000",
    "155003.180000",
    "155005.180000",
    "155007.180000",
    "155009.180000",
    "155011.180000",
    "155013.178000",
    "155015.179000",
    "155017.179000",
    "155019.179000",
    "155021.180000",
    "155022.804000"
   ],
   "InstanceCreationTime": [
    "154525.689000",
    "154527.179000",
    "154529.180000",
    "154531.179000",
    "154533.179000",
    "154535.179000",
    "154537.179000",
    "154539.180000",
    "154541.179000",
    "154543.179000",
    "154545.180000",
    "154547.179000",
    "154549.180000",
    "154551.178000",
    "154553.178000",
    "154555.178000",
    "154557.180000",
    "154559.179000",
    "154601.180000",
    "154603.179000",
    "154605.179000",
    "154607.180000",
    "154609.178000",
    "154611.178000",
    "154613.180000",
    "154615.180000",
    "154617.180000",
    "154619.180000",
    "154621.180000",
    "154623.180000",
    "154625.178000",
    "154627.179000",
    "154629.178000",
    "154631.180000",
    "154633.179000",
    "154635.180000",
    "154637.180000",
    "154639.179000",
    "154641.180000",
    "154643.179000",
    "154645.178000",
    "154647.178000",
    "154649.180000",
    "154651.180000",
    "154653.179000",
    "154655.179000",
    "154657.179000",
    "154659.180000",
    "154701.178000",
    "154703.178000",
    "154705.178000",
    "154707.180000",
    "154709.179000",
    "154711.179000",
    "154713.180000",
    "154715.180000",
    "154717.180000",
    "154719.178000",
    "154721.178000",
    "154723.180000",
    "154725.179000",
    "154727.179000",
    "154729.180000",
    "154731.180000",
    "154733.180000",
    "154735.178000",
    "154737.179000",
    "154739.178000",
    "154741.179000",
    "154743.180000",
    "154745.179000",
    "154747.180000",
    "154749.180000",
    "154751.180000",
    "154753.179000",
    "154755.178000",
    "154757.179000",
    "154759.180000",
    "154801.180000",
    "154803.180000",
    "154805.179000",
    "154807.180000",
    "154809.180000",
    "154811.178000",
    "154813.179000",
    "154815.179000",
    "154817.179000",
    "154819.180000",
    "154821.180000",
    "154823.180000",
    "154825.180000",
    "154827.179000",
    "154829.179000",
    "154831.179000",
    "154833.180000",
    "154835.179000",
    "154837.180000",
    "154839.180000",
    "154841.179000",
    "154843.179000",
    "154845.178000",
    "154847.179000",
    "154849.178000",
    "154851.179000",
    "154853.179000",
    "154855.180000",
    "154857.180000",
    "154859.179000",
    "154901.180000",
    "154903.179000",
    "154905.179000",
    "154907.178000",
    "154909.179000",
    "154911.180000",
    "154913.180000",
    "154915.180000",
    "154917.180000",
    "154919.180000",
    "154921.179000",
    "154923.179000",
    "154925.179000",
    "154927.180000",
    "154929.180000",
    "154931.179000",
    "154933.179000",
    "154935.179000",
    "154937.179000",
    "154939.178000",
    "154941.179000",
    "154943.179000",
    "154945.180000",
    "154947.180000",
    "154949.179000",
    "154951.179000",
    "154953.180000",
    "154955.179000",
    "154957.179000",
    "154959.178000",
    "155001.179000",
    "155003.180000",
    "155005.180000",
    "155007.180000",
    "155009.180000",
    "155011.180000",
    "155013.178000",
    "155015.179000",
    "155017.179000",
    "155019.179000",
    "155021.180000",
    "155022.804000"
   ],
   "InstanceNumber": [
    1,
    2,
    3,
    4,
    5,
    6,
    7,
    8,
    9,
    10,
    11,
    12,
    13,
    14,
    15,
    16,
    17,
    18,
    19,
    20,
    21,
    22,
    23,
    24,
    25,
    26,
    27,
    28,
    29,
    30,
    31,
    32,
    33,
    34,
    35,
    36,
    37,
    38,
    39,
    40,
    41,
    42,
    43,
    44,
    45,
    46,
    47,
    48,
    49,
    50,
    51,
    52,
    53,
    54,
    55,
    56,
    57,
    58,
    59,
    60,
    61,
    62,
    63,
    64,
    65,
    66,
    67,
    68,
    69,
    70,
    71,
    72,
    73,
    74,
    75,
    76,
    77,
    78,
    79,
    80,
    81,
    82,
    83,
    84,
    85,
    86,
    87,
    88,
    89,
    90,
    91,
    92,
    93,
    94,
    95,
    96,
    97,
    98,
    99,
    100,
    101,
    102,
    103,
    104,
    105,
    106,
    107,
    108,
    109,
    110,
    111,
    112,
    113,
    114,
    115,
    116,
    117,
    118,
    119,
    120,
    121,
    122,
    123,
    124,
    125,
    126,
    127,
    128,
    129,
    130,
    131,
    132,
    133,
    134,
    135,
    136,
    137,
    138,
    139,
    140,
    141,
    142,
    143,
    144,
    145,
    146,
    147,
    148,
    149,
    150
   ],
   "LargestImagePixelValue": [
    2448,
    2297,
    2326,
    2330,
    2309,
    2288,
    2313,
    2292,
    2268,
    2277,
    2239,
    2262,
    2359,
    2271,
    2251,
    2290,
    2630,
    2290,
    2988,
    2305,
    2282,
    2258,
    2273,
    2285,
    2259,
    2291,
    2262,
    2268,
    2295,
    2282,
    2284,
    2271,
    2300,
    2299,
    2272,
    2272,
    2262,
    2257,
    2276,
    2260,
    2261,
    2236,
    2253,
    2246,
    2640,
    2276,
    2268,
    2276,
    2238,
    2298,
    2244,
    2440,
    2295,
    2256,
    2308,
    2270,
    2279,
    2265,
    2611,
    2242,
    2280,
    2254,
    2256,
    2239,
    2281,
    2305,
    2255,
    2285,
    2254,
    2277,
    2296,
    2246,
    2294,
    2248,
    2490,
    2272,
    2292,
    2325,
    2294,
    2229,
    2257,
    2256,
    2276,
    2262,
    2244,
    2252,
    2218,
    2236,
    2225,
    2265,
    2255,
    2218,
    2257,
    2265,
    2269,
    2258,
    2282,
    2299,
    2263,
    2588,
    2266,
    2292,
    2265,
    2755,
    2246,
    2280,
    2300,
    2284,
    2249,
    2284,
    2251,
    2302,
    2289,
    2253,
    2244,
    2229,
    2248,
    2239,
    2250,
    2245,
    2209,
    2216,
    2244,
    2279,
    2217,
    2257,
    2232,
    2208,
    2202,
    2208,
    2206,
    2218,
    2230,
    2223,
    2241,
    2234,
    2199,
    2250,
    2193,
    2265,
    2238,
    2281,
    2220,
    2228,
    2236,
    2265,
    2233,
    2213,
    2265,
    2225
   ],
   "WindowCenter": [
    727.0,
    724.0,
    723.0,
    724.0,
    724.0,
    724.0,
    724.0,
    723.0,
    723.0,
    723.0,
    723.0,
    723.0,
    724.0,
    723.0,
    723.0,
    724.0,
    728.0,
    724.0,
    732.0,
    724.0,
    723.0,
    721.0,
    722.0,
    723.0,
    722.0,
    723.0,
    722.0,
    722.0,
    723.0,
    724.0,
    724.0,
    723.0,
    723.0,
    723.0,
    724.0,
    724.0,
    723.0,
    723.0,
    724.0,
    722.0,
    723.0,
    723.0,
    723.0,
    722.0,
    727.0,
    723.0,
    723.0,
    723.0,
    722.0,
    723.0,
    724.0,
    727.0,
    725.0,
    724.0,
    724.0,
    724.0,
    724.0,
    723.0,
    728.0,
    723.0,
    724.0,
    723.0,
    723.0,
    723.0,
    723.0,
    724.0,
    724.0,
    726.0,
    726.0,
    726.0,
    725.0,
    723.0,
    722.0,
    721.0,
    725.0,
    722.0,
    722.0,
    723.0,
    723.0,
    723.0,
    724.0,
    723.0,
    724.0,
    724.0,
    725.0,
    724.0,
    724.0,
    724.0,
    724.0,
    725.0,
    725.0,
    725.0,
    725.0,
    724.0,
    724.0,
    725.0,
    726.0,
    725.0,
    723.0,
    726.0,
    722.0,
    723.0,
    723.0,
    729.0,
    724.0,
    725.0,
    724.0,
    724.0,
    723.0,
    724.0,
    723.0,
    724.0,
    725.0,
    724.0,
    723.0,
    724.0,
    725.0,
    723.0,
    723.0,
    723.0,
    723.0,
    723.0,
    723.0,
    724.0,
    724.0,
    724.0,
    724.0,
    723.0,
    723.0,
    723.0,
    723.0,
    723.0,
    722.0,
    722.0,
    722.0,
    722.0,
    722.0,
    723.0,
    722.0,
    722.0,
    721.0,
    723.0,
    723.0,
    722.0,
    722.0,
    722.0,
    723.0,
    723.0,
    723.0,
    723.0
   ],
   "WindowWidth": [
    1546.0,
    1538.0,
    1537.0,
    1538.0,
    1538.0,
    1539.0,
    1539.0,
    1538.0,
    1537.0,
    1537.0,
    1536.0,
    1536.0,
    1541.0,
    1538.0,
    1538.0,
    1539.0,
    1549.0,
    1540.0,
    1558.0,
    1540.0,
    1536.0,
    1533.0,
    1534.0,
    1536.0,
    1536.0,
    1538.0,
    1536.0,
    1536.0,
    1537.0,
    1539.0,
    1539.0,
    1537.0,
    1538.0,
    1537.0,
    1539.0,
    1539.0,
    1537.0,
    1539.0,
    1539.0,
    1535.0,
    1536.0,
    1537.0,
    1536.0,
    1535.0,
    1546.0,
    1537.0,
    1537.0,
    1538.0,
    1535.0,
    1538.0,
    1539.0,
    1547.0,
    1542.0,
    1539.0,
    1540.0,
    1540.0,
    1540.0,
    1539.0,
    1549.0,
    1538.0,
    1540.0,
    1538.0,
    1538.0,
    1537.0,
    1538.0,
    1540.0,
    1540.0,
    1544.0,
    1545.0,
    1545.0,
    1542.0,
    1536.0,
    1534.0,
    1532.0,
    1541.0,
    1535.0,
    1535.0,
    1536.0,
    1538.0,
    1538.0,
    1539.0,
    1538.0,
    1540.0,
    1540.0,
    1542.0,
    1541.0,
    1539.0,
    1540.0,
    1541.0,
    1543.0,
    1544.0,
    1543.0,
    1543.0,
    1539.0,
    1539.0,
    1542.0,
    1545.0,
    1541.0,
    1538.0,
    1544.0,
    1535.0,
    1538.0,
    1537.0,
    1551.0,
    1540.0,
    1542.0,
    1540.0,
    1539.0,
    1537.0,
    1538.0,
    1537.0,
    1540.0,
    1541.0,
    1539.0,
    1538.0,
    1541.0,
    1542.0,
    1538.0,
    1537.0,
    1536.0,
    1537.0,
    1538.0,
    1538.0,
    1541.0,
    1540.0,
    1541.0,
    1539.0,
    1537.0,
    1537.0,
    1537.0,
    1537.0,
    1537.0,
    1536.0,
    1534.0,
    1535.0,
    1536.0,
    1535.0,
    1537.0,
    1534.0,
    1535.0,
    1534.0,
    1537.0,
    1537.0,
    1536.0,
    1535.0,
    1536.0,
    1537.0,
    1537.0,
    1537.0,
    1537.0
   ]
  },
  "slices": {}
 }
}