{
 "AcquisitionMatrixPE": 100,
 "AcquisitionNumber": 1,
 "AcquisitionTime": "14:50:41.677500",
 "BandwidthPerPixelPhaseEncode": 18.519,
 "BaseResolution": 100,
 "BodyPartExamined": "BRAIN",
 "ConsistencyInfo": "N4_VE11C_LATEST_20160120",
 "ConversionSoftware": "dcm2niix",
 "ConversionSoftwareVersion": "v1.0.20180622 GCC4.9.2",
 "DerivedVendorReportedEchoSpacing": 0.000539986,
 "DeviceSerialNumber": "166078",
 "DwellTime": 2.1e-06,
 "EchoTime": 0.034,
 "EchoTrainLength": 100,
 "EffectiveEchoSpacing": 0.000539986,
 "FlipAngle": 90,
 "ImageOrientationPatientDICOM": [
  1,
  0,
  0,
  0,
  0.999781,
  -0.0209424
 ],
 "ImageType": [
  "ORIGINAL",
  "PRIMARY",
  "M",
  "ND",
  "MOSAIC"
 ],
 "InPlanePhaseEncodingDirectionDICOM": "COL",
 "InstitutionAddress": "Street_StreetNo_Bei_Jing_District_CN_ZIP",
 "InstitutionName": "BeiJing_Normal_University",
 "InstitutionalDepartmentName": "Department",
 "MRAcquisitionType": "2D",
 "MagneticFieldStrength": 3,
 "Manufacturer": "Siemens",
 "ManufacturersModelName": "Prisma",
 "Modality": "MR",
 "MultibandAccelerationFactor": 3,
 "PartialFourier": 1,
 "PatientPosition": "HFS",
 "PercentPhaseFOV": 100,
 "PhaseEncodingDirection": "j-",
 "PhaseEncodingSteps": 100,
 "PhaseResolution": 1,
 "PixelBandwidth": 2380,
 "ProcedureStepDescription": "BNU_P2018_64CH_Zhen.ZongLei",
 "ProtocolName": "bold_100x100_s3_2x2x2_static_test_241",
 "PulseSequenceDetails": "%SiemensSeq%_ep2d_bold",
 "ReceiveCoilActiveElements": "HC1-7;NC1",
 "ReceiveCoilName": "HeadNeck_64",
 "ReconMatrixPE": 100,
 "RepetitionTime": 2,
 "SAR": 0.0770821,
 "ScanOptions": "FS",
 "ScanningSequence": "EP",
 "SequenceName": "_epfid2d1_100",
 "SequenceVariant": "SK",
 "SeriesDescription": "bold_100x100_s3_2x2x2_static_test_241",
 "SeriesNumber": 3,
 "ShimSetting": [
  -5450,
  -11528,
  -1197,
  543,
  14,
  -244,
  22,
  63
 ],
 "SliceThickness": 2,
 "SliceTiming": [
  1.485,
  0,
  0.99,
  0.0825,
  1.0725,
  0.165,
  1.155,
  0.2475,
  1.2375,
  0.33,
  1.32,
  0.4125,
  1.4025,
  0.5775,
  1.5675,
  0.66,
  1.65,
  0.7425,
  1.7325,
  0.825,
  1.815,
  0.9075,
  1.8975,
  0.495,
  1.485,
  0,
  0.99,
  0.0825,
  1.0725,
  0.165,
  1.155,
  0.2475,
  1.2375,
  0.33,
  1.32,
  0.4125,
  1.4025,
  0.5775,
  1.5675,
  0.66,
  1.65,
  0.7425,
  1.7325,
  0.825,
  1.815,
  0.9075,
  1.8975,
  0.495,
  1.485,
  0,
  0.99,
  0.0825,
  1.0725,
  0.165,
  1.155,
  0.2475,
  1.2375,
  0.33,
  1.32,
  0.4125,
  1.4025,
  0.5775,
  1.5675,
  0.66,
  1.65,
  0.7425,
  1.7325,
  0.825,
  1.815,
  0.9075,
  1.8975,
  0.495
 ],
 "SoftwareVersions": "syngo_MR_E11",
 "SpacingBetweenSlices": 2,
 "StationName": "AWP166078",
 "TaskName": "coco",
 "TotalReadoutTime": 0.0534586,
 "TxRefAmp": 209.645,
 "dcmmeta_affine": [
  [
   -2.0,
   0.0,
   0.0,
   100.67469787597656
  ],
  [
   0.0,
   1.9995613098144531,
   -0.04188483953475952,
   -82.38557434082031
  ],
  [
   0.0,
   0.04188483953475952,
   1.9995613098144531,
   -38.7428092956543
  ],
  [
   0.0,
   0.0,
   0.0,
   1.0
  ]
 ],
 "dcmmeta_reorient_transform": [
  [
   0.0,
   -1.0,
   0.0,
   99.0
  ],
  [
   1.0,
   0.0,
   0.0,
   0.0
  ],
  [
   0.0,
   0.0,
   1.0,
   0.0
  ],
  [
   0.0,
   0.0,
   0.0,
   1.0
  ]
 ],
 "dcmmeta_shape": [
  100,
  100,
  72,
  241
 ],
 "dcmmeta_slice_dim": 2,
 "dcmmeta_version": 0.6,
 "global": {
  "const": {
   "AcquisitionMatrix": [
    100,
    0,
    0,
    100
   ],
   "AngioFlag": "N",
   "BitsAllocated": 16,
   "BitsStored": 12,
   "BodyPartExamined": "BRAIN",
   "Columns": 900,
   "EchoNumbers": 1,
   "EchoTime": 34.0,
   "EchoTrainLength": 100,
   "FlipAngle": 90.0,
   "HighBit": 11,
   "ImageOrientationPatient": [
    1.0,
    0.0,
    0.0,
    0.0,
    0.9997806834792,
    -0.0209424196753
   ],
   "ImagePositionPatient": [
    -900.67469877005,
    -915.39555069341,
    -17.842274867905
   ],
   "ImageType": [
    "ORIGINAL",
    "PRIMARY",
    "M",
    "ND",
    "MOSAIC"
   ],
   "ImagedNucleus": "1H",
   "ImagingFrequency": 123.257713,
   "InPlanePhaseEncodingDirection": "COL",
   "MRAcquisitionType": "2D",
   "MagneticFieldStrength": 3.0,
   "Manufacturer": "SIEMENS",
   "ManufacturerModelName": "Prisma",
   "Modality": "MR",
   "NumberOfAverages": 1.0,
   "NumberOfPhaseEncodingSteps": 100,
   "PercentPhaseFieldOfView": 100.0,
   "PercentSampling": 100.0,
   "PerformedProcedureStepStartTime": "144707.790000",
   "PhotometricInterpretation": "MONOCHROME2",
   "PixelBandwidth": 2380.0,
   "PixelRepresentation": 0,
   "PixelSpacing": [
    2.0,
    2.0
   ],
   "ProtocolName": "bold_100x100_s3_2x2x2_static_test_241",
   "RepetitionTime": 2000.0,
   "Rows": 900,
   "SAR": 0.07708213713902,
   "SamplesPerPixel": 1,
   "ScanOptions": "FS",
   "ScanningSequence": "EP",
   "SequenceName": "*epfid2d1_100",
   "SequenceVariant": "SK",
   "SeriesDescription": "bold_100x100_s3_2x2x2_static_test_241",
   "SeriesNumber": 3,
   "SeriesTime": "145044.332000",
   "SliceLocation": -37.00895955379,
   "SliceThickness": 2.0,
   "SmallestImagePixelValue": 0,
   "SoftwareVersions": "syngo MR E11",
   "SpacingBetweenSlices": 1.9999999965712,
   "SpecificCharacterSet": "ISO_IR 100",
   "StudyID": "1",
   "StudyTime": "144707.690000",
   "TransmitCoilName": "Body",
   "VariableFlipAngleFlag": "N",
   "WindowCenterWidthExplanation": "Algo1",
   "dBdt": 0.0
  },
  "slices": {}
 },
 "time": {
  "samples": {
   "AcquisitionNumber": [
    1,
    2,
    3,
    4,
    5,
    6,
    7,
    8,
    9,
    10,
    11,
    12,
    13,
    14,
    15,
    16,
    17,
    18,
    19,
    20,
    21,
    22,
    23,
    24,
    25,
    26,
    27,
    28,
    29,
    30,
    31,
    32,
    33,
    34,
    35,
    36,
    37,
    38,
    39,
    40,
    41,
    42,
    43,
    44,
    45,
    46,
    47,
    48,
    49,
    50,
    51,
    52,
    53,
    54,
    55,
    56,
    57,
    58,
    59,
    60,
    61,
    62,
    63,
    64,
    65,
    66,
    67,
    68,
    69,
    70,
    71,
    72,
    73,
    74,
    75,
    76,
    77,
    78,
    79,
    80,
    81,
    82,
    83,
    84,
    85,
    86,
    87,
    88,
    89,
    90,
    91,
    92,
    93,
    94,
    95,
    96,
    97,
    98,
    99,
    100,
    101,
    102,
    103,
    104,
    105,
    106,
    107,
    108,
    109,
    110,
    111,
    112,
    113,
    114,
    115,
    116,
    117,
    118,
    119,
    120,
    121,
    122,
    123,
    124,
    125,
    126,
    127,
    128,
    129,
    130,
    131,
    132,
    133,
    134,
    135,
    136,
    137,
    138,
    139,
    140,
    141,
    142,
    143,
    144,
    145,
    146,
    147,
    148,
    149,
    150,
    151,
    152,
    153,
    154,
    155,
    156,
    157,
    158,
    159,
    160,
    161,
    162,
    163,
    164,
    165,
    166,
    167,
    168,
    169,
    170,
    171,
    172,
    173,
    174,
    175,
    176,
    177,
    178,
    179,
    180,
    181,
    182,
    183,
    184,
    185,
    186,
    187,
    188,
    189,
    190,
    191,
    192,
    193,
    194,
    195,
    196,
    197,
    198,
    199,
    200,
    201,
    202,
    203,
    204,
    205,
    206,
    207,
    208,
    209,
    210,
    211,
    212,
    213,
    214,
    215,
    216,
    217,
    218,
    219,
    220,
    221,
    222,
    223,
    224,
    225,
    226,
    227,
    228,
    229,
    230,
    231,
    232,
    233,
    234,
    235,
    236,
    237,
    238,
    239,
    240,
    241
   ],
   "AcquisitionTime": [
    "145041.677500",
    "145043.677500",
    "145045.677500",
    "145047.677500",
    "145049.677500",
    "145051.677500",
    "145053.677500",
    "145055.677500",
    "145057.677500",
    "145059.677500",
    "145101.677500",
    "145103.677500",
    "145105.677500",
    "145107.677500",
    "145109.677500",
    "145111.677500",
    "145113.677500",
    "145115.677500",
    "145117.677500",
    "145119.677500",
    "145121.677500",
    "145123.677500",
    "145125.677500",
    "145127.677500",
    "145129.677500",
    "145131.677500",
    "145133.677500",
    "145135.677500",
    "145137.677500",
    "145139.677500",
    "145141.677500",
    "145143.677500",
    "145145.677500",
    "145147.677500",
    "145149.677500",
    "145151.677500",
    "145153.677500",
    "145155.677500",
    "145157.677500",
    "145159.677500",
    "145201.677500",
    "145203.677500",
    "145205.677500",
    "145207.677500",
    "145209.677500",
    "145211.677500",
    "145213.677500",
    "145215.677500",
    "145217.677500",
    "145219.677500",
    "145221.677500",
    "145223.677500",
    "145225.677500",
    "145227.677500",
    "145229.677500",
    "145231.677500",
    "145233.677500",
    "145235.677500",
    "145237.677500",
    "145239.677500",
    "145241.677500",
    "145243.677500",
    "145245.677500",
    "145247.677500",
    "145249.677500",
    "145251.677500",
    "145253.677500",
    "145255.677500",
    "145257.677500",
    "145259.677500",
    "145301.677500",
    "145303.677500",
    "145305.677500",
    "145307.677500",
    "145309.677500",
    "145311.677500",
    "145313.677500",
    "145315.677500",
    "145317.677500",
    "145319.677500",
    "145321.677500",
    "145323.677500",
    "145325.677500",
    "145327.677500",
    "145329.677500",
    "145331.677500",
    "145333.677500",
    "145335.677500",
    "145337.677500",
    "145339.677500",
    "145341.677500",
    "145343.677500",
    "145345.677500",
    "145347.677500",
    "145349.677500",
    "145351.677500",
    "145353.677500",
    "145355.677500",
    "145357.677500",
    "145359.677500",
    "145401.677500",
    "145403.677500",
    "145405.677500",
    "145407.677500",
    "145409.677500",
    "145411.677500",
    "145413.677500",
    "145415.677500",
    "145417.677500",
    "145419.677500",
    "145421.677500",
    "145423.677500",
    "145425.677500",
    "145427.677500",
    "145429.677500",
    "145431.677500",
    "145433.677500",
    "145435.677500",
    "145437.677500",
    "145439.677500",
    "145441.677500",
    "145443.677500",
    "145445.677500",
    "145447.677500",
    "145449.677500",
    "145451.677500",
    "145453.677500",
    "145455.677500",
    "145457.677500",
    "145459.677500",
    "145501.677500",
    "145503.677500",
    "145505.677500",
    "145507.677500",
    "145509.677500",
    "145511.677500",
    "145513.677500",
    "145515.677500",
    "145517.677500",
    "145519.677500",
    "145521.677500",
    "145523.677500",
    "145525.677500",
    "145527.677500",
    "145529.677500",
    "145531.677500",
    "145533.677500",
    "145535.677500",
    "145537.677500",
    "145539.677500",
    "145541.677500",
    "145543.677500",
    "145545.677500",
    "145547.677500",
    "145549.677500",
    "145551.677500",
    "145553.677500",
    "145555.677500",
    "145557.677500",
    "145559.677500",
    "145601.677500",
    "145603.677500",
    "145605.677500",
    "145607.677500",
    "145609.677500",
    "145611.677500",
    "145613.677500",
    "145615.677500",
    "145617.677500",
    "145619.677500",
    "145621.677500",
    "145623.677500",
    "145625.677500",
    "145627.677500",
    "145629.677500",
    "145631.677500",
    "145633.677500",
    "145635.677500",
    "145637.677500",
    "145639.677500",
    "145641.677500",
    "145643.677500",
    "145645.677500",
    "145647.677500",
    "145649.677500",
    "145651.677500",
    "145653.677500",
    "145655.677500",
    "145657.677500",
    "145659.677500",
    "145701.677500",
    "145703.677500",
    "145705.677500",
    "145707.677500",
    "145709.677500",
    "145711.677500",
    "145713.677500",
    "145715.677500",
    "145717.677500",
    "145719.677500",
    "145721.677500",
    "145723.677500",
    "145725.677500",
    "145727.677500",
    "145729.677500",
    "145731.677500",
    "145733.677500",
    "145735.677500",
    "145737.677500",
    "145739.677500",
    "145741.677500",
    "145743.677500",
    "145745.677500",
    "145747.677500",
    "145749.677500",
    "145751.677500",
    "145753.677500",
    "145755.677500",
    "145757.677500",
    "145759.677500",
    "145801.677500",
    "145803.677500",
    "145805.677500",
    "145807.677500",
    "145809.677500",
    "145811.677500",
    "145813.677500",
    "145815.677500",
    "145817.677500",
    "145819.677500",
    "145821.677500",
    "145823.677500",
    "145825.677500",
    "145827.677500",
    "145829.677500",
    "145831.677500",
    "145833.677500",
    "145835.677500",
    "145837.677500",
    "145839.677500",
    "145841.677500"
   ],
   "ContentTime": [
    "145044.336000",
    "145045.832000",
    "145047.832000",
    "145049.830000",
    "145051.838000",
    "145053.832000",
    "145055.832000",
    "145057.832000",
    "145059.832000",
    "145101.832000",
    "145103.835000",
    "145105.831000",
    "145107.831000",
    "145109.831000",
    "145111.832000",
    "145113.831000",
    "145115.832000",
    "145117.832000",
    "145119.831000",
    "145121.832000",
    "145123.831000",
    "145125.831000",
    "145127.833000",
    "145129.832000",
    "145131.832000",
    "145133.834000",
    "145135.832000",
    "145137.832000",
    "145139.831000",
    "145141.830000",
    "145143.831000",
    "145145.831000",
    "145147.832000",
    "145149.832000",
    "145151.831000",
    "145153.832000",
    "145155.832000",
    "145157.832000",
    "145159.830000",
    "145201.831000",
    "145203.832000",
    "145205.832000",
    "145207.831000",
    "145209.831000",
    "145211.831000",
    "145213.831000",
    "145215.831000",
    "145217.830000",
    "145219.832000",
    "145221.831000",
    "145223.832000",
    "145225.832000",
    "145227.832000",
    "145229.831000",
    "145231.831000",
    "145233.831000",
    "145235.830000",
    "145237.831000",
    "145239.831000",
    "145241.832000",
    "145243.832000",
    "145245.832000",
    "145247.831000",
    "145249.832000",
    "145251.831000",
    "145253.830000",
    "145255.832000",
    "145257.831000",
    "145259.832000",
    "145301.832000",
    "145303.832000",
    "145305.832000",
    "145307.831000",
    "145309.831000",
    "145311.831000",
    "145313.832000",
    "145315.831000",
    "145317.831000",
    "145319.831000",
    "145321.831000",
    "145323.832000",
    "145325.831000",
    "145327.830000",
    "145329.831000",
    "145331.832000",
    "145333.832000",
    "145335.831000",
    "145337.832000",
    "145339.832000",
    "145341.831000",
    "145343.830000",
    "145345.831000",
    "145347.831000",
    "145349.831000",
    "145351.831000",
    "145353.831000",
    "145355.832000",
    "145357.832000",
    "145359.831000",
    "145401.830000",
    "145403.831000",
    "145405.831000",
    "145407.832000",
    "145409.831000",
    "145411.832000",
    "145413.832000",
    "145415.831000",
    "145417.831000",
    "145419.831000",
    "145421.831000",
    "145423.832000",
    "145425.831000",
    "145427.831000",
    "145429.831000",
    "145431.831000",
    "145433.832000",
    "145435.831000",
    "145437.831000",
    "145439.831000",
    "145441.831000",
    "145443.831000",
    "145445.831000",
    "145447.831000",
    "145449.832000",
    "145451.831000",
    "145453.831000",
    "145455.831000",
    "145457.831000",
    "145459.832000",
    "145501.831000",
    "145503.832000",
    "145505.832000",
    "145507.832000",
    "145509.831000",
    "145511.834000",
    "145513.831000",
    "145515.832000",
    "145517.831000",
    "145519.831000",
    "145521.831000",
    "145523.831000",
    "145525.832000",
    "145527.831000",
    "145529.831000",
    "145531.831000",
    "145533.832000",
    "145535.831000",
    "145537.831000",
    "145539.832000",
    "145541.832000",
    "145543.832000",
    "145545.832000",
    "145547.831000",
    "145549.832000",
    "145551.832000",
    "145553.832000",
    "145555.834000",
    "145557.832000",
    "145559.832000",
    "145601.831000",
    "145603.831000",
    "145605.831000",
    "145607.832000",
    "145609.832000",
    "145611.832000",
    "145613.832000",
    "145615.831000",
    "145617.832000",
    "145619.832000",
    "145621.830000",
    "145623.831000",
    "145625.832000",
    "145627.831000",
    "145629.831000",
    "145631.831000",
    "145633.832000",
    "145635.832000",
    "145637.832000",
    "145639.831000",
    "145641.834000",
    "145643.831000",
    "145645.832000",
    "145647.831000",
    "145649.832000",
    "145651.832000",
    "145653.831000",
    "145655.832000",
    "145657.830000",
    "145659.831000",
    "145701.831000",
    "145703.832000",
    "145705.832000",
    "145707.832000",
    "145709.832000",
    "145711.831000",
    "145713.830000",
    "145715.831000",
    "145717.831000",
    "145719.831000",
    "145721.831000",
    "145723.831000",
    "145725.831000",
    "145727.831000",
    "145729.832000",
    "145731.831000",
    "145733.831000",
    "145735.831000",
    "145737.831000",
    "145739.831000",
    "145741.832000",
    "145743.832000",
    "145745.831000",
    "145747.831000",
    "145749.830000",
    "145751.831000",
    "145753.831000",
    "145755.832000",
    "145757.832000",
    "145759.832000",
    "145801.831000",
    "145803.831000",
    "145805.832000",
    "145807.830000",
    "145809.832000",
    "145811.832000",
    "145813.832000",
    "145815.832000",
    "145817.832000",
    "145819.832000",
    "145821.831000",
    "145823.830000",
    "145825.831000",
    "145827.832000",
    "145829.831000",
    "145831.832000",
    "145833.832000",
    "145835.832000",
    "145837.831000",
    "145839.832000",
    "145841.831000",
    "145843.563000"
   ],
   "InstanceCreationTime": [
    "145044.336000",
    "145045.832000",
    "145047.832000",
    "145049.830000",
    "145051.838000",
    "145053.832000",
    "145055.832000",
    "145057.832000",
    "145059.832000",
    "145101.832000",
    "145103.835000",
    "145105.831000",
    "145107.831000",
    "145109.831000",
    "145111.832000",
    "145113.831000",
    "145115.832000",
    "145117.832000",
    "145119.831000",
    "145121.832000",
    "145123.831000",
    "145125.831000",
    "145127.833000",
    "145129.832000",
    "145131.832000",
    "145133.834000",
    "145135.832000",
    "145137.832000",
    "145139.831000",
    "145141.830000",
    "145143.831000",
    "145145.831000",
    "145147.832000",
    "145149.832000",
    "145151.831000",
    "145153.832000",
    "145155.832000",
    "145157.832000",
    "145159.830000",
    "145201.831000",
    "145203.832000",
    "145205.832000",
    "145207.831000",
    "145209.831000",
    "145211.831000",
    "145213.831000",
    "145215.831000",
    "145217.830000",
    "145219.832000",
    "145221.831000",
    "145223.832000",
    "145225.832000",
    "145227.832000",
    "145229.831000",
    "145231.831000",
    "145233.831000",
    "145235.830000",
    "145237.831000",
    "145239.831000",
    "145241.832000",
    "145243.832000",
    "145245.832000",
    "145247.831000",
    "145249.832000",
    "145251.831000",
    "145253.830000",
    "145255.832000",
    "145257.831000",
    "145259.832000",
    "145301.832000",
    "145303.832000",
    "145305.832000",
    "145307.831000",
    "145309.831000",
    "145311.831000",
    "145313.832000",
    "145315.831000",
    "145317.831000",
    "145319.831000",
    "145321.831000",
    "145323.832000",
    "145325.831000",
    "145327.830000",
    "145329.831000",
    "145331.832000",
    "145333.832000",
    "145335.831000",
    "145337.832000",
    "145339.832000",
    "145341.831000",
    "145343.830000",
    "145345.831000",
    "145347.831000",
    "145349.831000",
    "145351.831000",
    "145353.831000",
    "145355.832000",
    "145357.832000",
    "145359.831000",
    "145401.830000",
    "145403.831000",
    "145405.831000",
    "145407.832000",
    "145409.831000",
    "145411.832000",
    "145413.832000",
    "145415.831000",
    "145417.831000",
    "145419.831000",
    "145421.831000",
    "145423.832000",
    "145425.831000",
    "145427.831000",
    "145429.831000",
    "145431.831000",
    "145433.832000",
    "145435.831000",
    "145437.831000",
    "145439.831000",
    "145441.831000",
    "145443.831000",
    "145445.831000",
    "145447.831000",
    "145449.832000",
    "145451.831000",
    "145453.831000",
    "145455.831000",
    "145457.831000",
    "145459.832000",
    "145501.831000",
    "145503.832000",
    "145505.832000",
    "145507.832000",
    "145509.831000",
    "145511.834000",
    "145513.831000",
    "145515.832000",
    "145517.831000",
    "145519.831000",
    "145521.831000",
    "145523.831000",
    "145525.832000",
    "145527.831000",
    "145529.831000",
    "145531.831000",
    "145533.832000",
    "145535.831000",
    "145537.831000",
    "145539.832000",
    "145541.832000",
    "145543.832000",
    "145545.832000",
    "145547.831000",
    "145549.832000",
    "145551.832000",
    "145553.832000",
    "145555.834000",
    "145557.832000",
    "145559.832000",
    "145601.831000",
    "145603.831000",
    "145605.831000",
    "145607.832000",
    "145609.832000",
    "145611.832000",
    "145613.832000",
    "145615.831000",
    "145617.832000",
    "145619.832000",
    "145621.830000",
    "145623.831000",
    "145625.832000",
    "145627.831000",
    "145629.831000",
    "145631.831000",
    "145633.832000",
    "145635.832000",
    "145637.832000",
    "145639.831000",
    "145641.834000",
    "145643.831000",
    "145645.832000",
    "145647.831000",
    "145649.832000",
    "145651.832000",
    "145653.831000",
    "145655.832000",
    "145657.830000",
    "145659.831000",
    "145701.831000",
    "145703.832000",
    "145705.832000",
    "145707.832000",
    "145709.832000",
    "145711.831000",
    "145713.830000",
    "145715.831000",
    "145717.831000",
    "145719.831000",
    "145721.831000",
    "145723.831000",
    "145725.831000",
    "145727.831000",
    "145729.832000",
    "145731.831000",
    "145733.831000",
    "145735.831000",
    "145737.831000",
    "145739.831000",
    "145741.832000",
    "145743.832000",
    "145745.831000",
    "145747.831000",
    "145749.830000",
    "145751.831000",
    "145753.831000",
    "145755.832000",
    "145757.832000",
    "145759.832000",
    "145801.831000",
    "145803.831000",
    "145805.832000",
    "145807.830000",
    "145809.832000",
    "145811.832000",
    "145813.832000",
    "145815.832000",
    "145817.832000",
    "145819.832000",
    "145821.831000",
    "145823.830000",
    "145825.831000",
    "145827.832000",
    "145829.831000",
    "145831.832000",
    "145833.832000",
    "145835.832000",
    "145837.831000",
    "145839.832000",
    "145841.831000",
    "145843.563000"
   ],
   "InstanceNumber": [
    1,
    2,
    3,
    4,
    5,
    6,
    7,
    8,
    9,
    10,
    11,
    12,
    13,
    14,
    15,
    16,
    17,
    18,
    19,
    20,
    21,
    22,
    23,
    24,
    25,
    26,
    27,
    28,
    29,
    30,
    31,
    32,
    33,
    34,
    35,
    36,
    37,
    38,
    39,
    40,
    41,
    42,
    43,
    44,
    45,
    46,
    47,
    48,
    49,
    50,
    51,
    52,
    53,
    54,
    55,
    56,
    57,
    58,
    59,
    60,
    61,
    62,
    63,
    64,
    65,
    66,
    67,
    68,
    69,
    70,
    71,
    72,
    73,
    74,
    75,
    76,
    77,
    78,
    79,
    80,
    81,
    82,
    83,
    84,
    85,
    86,
    87,
    88,
    89,
    90,
    91,
    92,
    93,
    94,
    95,
    96,
    97,
    98,
    99,
    100,
    101,
    102,
    103,
    104,
    105,
    106,
    107,
    108,
    109,
    110,
    111,
    112,
    113,
    114,
    115,
    116,
    117,
    118,
    119,
    120,
    121,
    122,
    123,
    124,
    125,
    126,
    127,
    128,
    129,
    130,
    131,
    132,
    133,
    134,
    135,
    136,
    137,
    138,
    139,
    140,
    141,
    142,
    143,
    144,
    145,
    146,
    147,
    148,
    149,
    150,
    151,
    152,
    153,
    154,
    155,
    156,
    157,
    158,
    159,
    160,
    161,
    162,
    163,
    164,
    165,
    166,
    167,
    168,
    169,
    170,
    171,
    172,
    173,
    174,
    175,
    176,
    177,
    178,
    179,
    180,
    181,
    182,
    183,
    184,
    185,
    186,
    187,
    188,
    189,
    190,
    191,
    192,
    193,
    194,
    195,
    196,
    197,
    198,
    199,
    200,
    201,
    202,
    203,
    204,
    205,
    206,
    207,
    208,
    209,
    210,
    211,
    212,
    213,
    214,
    215,
    216,
    217,
    218,
    219,
    220,
    221,
    222,
    223,
    224,
    225,
    226,
    227,
    228,
    229,
    230,
    231,
    232,
    233,
    234,
    235,
    236,
    237,
    238,
    239,
    240,
    241
   ],
   "LargestImagePixelValue": [
    2808,
    2711,
    2651,
    2647,
    2632,
    2664,
    2654,
    2641,
    2655,
    2657,
    2674,
    2626,
    2626,
    2656,
    2673,
    2663,
    2647,
    2654,
    2635,
    2599,
    2652,
    2637,
    2648,
    2646,
    2610,
    2645,
    2630,
    2604,
    2659,
    2674,
    2684,
    2703,
    2624,
    2652,
    2649,
    2618,
    2650,
    2644,
    2642,
    2617,
    2622,
    2661,
    2646,
    2669,
    2643,
    2649,
    2619,
    2667,
    2654,
    2647,
    2658,
    2629,
    2611,
    2602,
    2607,
    2657,
    2633,
    2571,
    2627,
    2655,
    2667,
    2657,
    2681,
    2624,
    2666,
    2651,
    2669,
    2670,
    2664,
    2658,
    2653,
    2643,
    2648,
    2642,
    2667,
    2672,
    2640,
    2626,
    2631,
    2648,
    2642,
    2627,
    2655,
    2666,
    2660,
    2685,
    2662,
    2633,
    2650,
    2640,
    2675,
    2642,
    2638,
    2638,
    2642,
    2681,
    2619,
    2650,
    2635,
    2634,
    2633,
    2671,
    2623,
    2647,
    2644,
    2646,
    2673,
    2622,
    2657,
    2641,
    2599,
    2611,
    2641,
    2681,
    2648,
    2629,
    2658,
    2664,
    2676,
    2642,
    2649,
    2632,
    2661,
    2619,
    2675,
    2676,
    2675,
    2633,
    2649,
    2635,
    2612,
    2668,
    2638,
    2644,
    2644,
    2633,
    2612,
    2626,
    2643,
    2620,
    2601,
    2620,
    2632,
    2667,
    2646,
    2679,
    2646,
    2622,
    2642,
    2649,
    2640,
    2627,
    2639,
    2642,
    2610,
    2604,
    2634,
    2643,
    2621,
    2633,
    2612,
    2606,
    2646,
    2633,
    2648,
    2623,
    2642,
    2633,
    2659,
    2654,
    2686,
    2659,
    2638,
    2650,
    2645,
    2645,
    2670,
    2628,
    2648,
    2638,
    2659,
    2638,
    2690,
    2678,
    2666,
    2662,
    2659,
    2718,
    2673,
    2662,
    2638,
    2637,
    2652,
    2647,
    2661,
    2670,
    2654,
    2629,
    2639,
    2667,
    2637,
    2637,
    2631,
    2653,
    2669,
    2647,
    2649,
    2666,
    2650,
    2633,
    2641,
    2675,
    2681,
    2672,
    2644,
    2636,
    2663,
    2623,
    2618,
    2606,
    2609,
    2633,
    2619,
    2630,
    2667,
    2637,
    2617,
    2625,
    2633,
    2633,
    2633,
    2631,
    2618,
    2629,
    2627,
    2659,
    2601,
    2617,
    2735,
    2585,
    2610
   ],
   "WindowCenter": [
    749.0,
    747.0,
    747.0,
    748.0,
    747.0,
    747.0,
    746.0,
    746.0,
    747.0,
    747.0,
    747.0,
    747.0,
    748.0,
    748.0,
    749.0,
    749.0,
    748.0,
    748.0,
    748.0,
    747.0,
    748.0,
    747.0,
    747.0,
    748.0,
    748.0,
    749.0,
    748.0,
    747.0,
    748.0,
    748.0,
    748.0,
    748.0,
    747.0,
    748.0,
    748.0,
    747.0,
    748.0,
    747.0,
    748.0,
    748.0,
    748.0,
    747.0,
    747.0,
    748.0,
    748.0,
    748.0,
    747.0,
    747.0,
    747.0,
    747.0,
    747.0,
    747.0,
    748.0,
    748.0,
    748.0,
    748.0,
    748.0,
    748.0,
    748.0,
    747.0,
    747.0,
    747.0,
    747.0,
    746.0,
    746.0,
    746.0,
    747.0,
    747.0,
    746.0,
    745.0,
    746.0,
    747.0,
    746.0,
    746.0,
    746.0,
    746.0,
    747.0,
    748.0,
    748.0,
    748.0,
    748.0,
    748.0,
    748.0,
    747.0,
    747.0,
    747.0,
    747.0,
    748.0,
    748.0,
    747.0,
    747.0,
    747.0,
    747.0,
    747.0,
    746.0,
    747.0,
    747.0,
    747.0,
    747.0,
    747.0,
    748.0,
    748.0,
    747.0,
    747.0,
    747.0,
    747.0,
    748.0,
    748.0,
    748.0,
    748.0,
    748.0,
    748.0,
    747.0,
    747.0,
    747.0,
    747.0,
    747.0,
    746.0,
    747.0,
    747.0,
    748.0,
    747.0,
    747.0,
    747.0,
    748.0,
    748.0,
    749.0,
    748.0,
    748.0,
    747.0,
    747.0,
    747.0,
    747.0,
    747.0,
    747.0,
    747.0,
    747.0,
    748.0,
    748.0,
    747.0,
    747.0,
    747.0,
    747.0,
    746.0,
    746.0,
    747.0,
    747.0,
    747.0,
    747.0,
    747.0,
    747.0,
    746.0,
    747.0,
    748.0,
    748.0,
    746.0,
    746.0,
    746.0,
    746.0,
    746.0,
    745.0,
    746.0,
    747.0,
    747.0,
    746.0,
    746.0,
    746.0,
    748.0,
    748.0,
    747.0,
    747.0,
    746.0,
    747.0,
    748.0,
    747.0,
    747.0,
    747.0,
    745.0,
    746.0,
    747.0,
    746.0,
    746.0,
    746.0,
    746.0,
    746.0,
    746.0,
    746.0,
    746.0,
    746.0,
    747.0,
    747.0,
    746.0,
    746.0,
    746.0,
    745.0,
    746.0,
    746.0,
    746.0,
    746.0,
    746.0,
    746.0,
    746.0,
    746.0,
    746.0,
    746.0,
    746.0,
    746.0,
    746.0,
    746.0,
    746.0,
    746.0,
    746.0,
    746.0,
    746.0,
    745.0,
    745.0,
    746.0,
    746.0,
    746.0,
    745.0,
    745.0,
    745.0,
    745.0,
    745.0,
    746.0,
    746.0,
    747.0,
    747.0,
    746.0,
    745.0,
    745.0,
    747.0,
    746.0,
    745.0,
    744.0,
    745.0,
    745.0,
    747.0,
    749.0,
    748.0,
    747.0
   ],
   "WindowWidth": [
    1612.0,
    1606.0,
    1608.0,
    1609.0,
