{
 "AcquisitionMatrixPE": 100,
 "AcquisitionNumber": 1,
 "AcquisitionTime": "16:03:34.455000",
 "BandwidthPerPixelPhaseEncode": 18.519,
 "BaseResolution": 100,
 "BodyPartExamined": "BRAIN",
 "ConsistencyInfo": "N4_VE11C_LATEST_20160120",
 "ConversionSoftware": "dcm2niix",
 "ConversionSoftwareVersion": "v1.0.20180622 GCC4.9.2",
 "DerivedVendorReportedEchoSpacing": 0.000539986,
 "DeviceSerialNumber": "166078",
 "DwellTime": 2.1e-06,
 "EchoTime": 0.034,
 "EchoTrainLength": 100,
 "EffectiveEchoSpacing": 0.000539986,
 "FlipAngle": 90,
 "ImageOrientationPatientDICOM": [
  1,
  0,
  0,
  0,
  0.999781,
  -0.0209424
 ],
 "ImageType": [
  "ORIGINAL",
  "PRIMARY",
  "M",
  "ND",
  "MOSAIC"
 ],
 "InPlanePhaseEncodingDirectionDICOM": "COL",
 "InstitutionAddress": "Street_StreetNo_Bei_Jing_District_CN_ZIP",
 "InstitutionName": "BeiJing_Normal_University",
 "InstitutionalDepartmentName": "Department",
 "MRAcquisitionType": "2D",
 "MagneticFieldStrength": 3,
 "Manufacturer": "Siemens",
 "ManufacturersModelName": "Prisma",
 "Modality": "MR",
 "MultibandAccelerationFactor": 3,
 "PartialFourier": 1,
 "PatientPosition": "HFS",
 "PercentPhaseFOV": 100,
 "PhaseEncodingDirection": "j-",
 "PhaseEncodingSteps": 100,
 "PhaseResolution": 1,
 "PixelBandwidth": 2380,
 "ProcedureStepDescription": "BNU_P2018_64CH_Zhen.ZongLei",
 "ProtocolName": "bold_100x100_s3_2x2x2_static_test_241",
 "PulseSequenceDetails": "%SiemensSeq%_ep2d_bold",
 "ReceiveCoilActiveElements": "HC1-7;NC1",
 "ReceiveCoilName": "HeadNeck_64",
 "ReconMatrixPE": 100,
 "RepetitionTime": 2,
 "SAR": 0.0770821,
 "ScanOptions": "FS",
 "ScanningSequence": "EP",
 "SequenceName": "_epfid2d1_100",
 "SequenceVariant": "SK",
 "SeriesDescription": "bold_100x100_s3_2x2x2_static_test_241",
 "SeriesNumber": 13,
 "ShimSetting": [
  -5450,
  -11528,
  -1197,
  543,
  14,
  -244,
  22,
  63
 ],
 "SliceThickness": 2,
 "SliceTiming": [
  1.485,
  0,
  0.99,
  0.0825,
  1.0725,
  0.165,
  1.155,
  0.2475,
  1.2375,
  0.33,
  1.32,
  0.4125,
  1.4025,
  0.5775,
  1.5675,
  0.66,
  1.65,
  0.7425,
  1.7325,
  0.825,
  1.815,
  0.9075,
  1.8975,
  0.495,
  1.485,
  0,
  0.99,
  0.0825,
  1.0725,
  0.165,
  1.155,
  0.2475,
  1.2375,
  0.33,
  1.32,
  0.4125,
  1.4025,
  0.5775,
  1.5675,
  0.66,
  1.65,
  0.7425,
  1.7325,
  0.825,
  1.815,
  0.9075,
  1.8975,
  0.495,
  1.485,
  0,
  0.99,
  0.0825,
  1.0725,
  0.165,
  1.155,
  0.2475,
  1.2375,
  0.33,
  1.32,
  0.4125,
  1.4025,
  0.5775,
  1.5675,
  0.66,
  1.65,
  0.7425,
  1.7325,
  0.825,
  1.815,
  0.9075,
  1.8975,
  0.495
 ],
 "SoftwareVersions": "syngo_MR_E11",
 "SpacingBetweenSlices": 2,
 "StationName": "AWP166078",
 "TaskName": "coco",
 "TotalReadoutTime": 0.0534586,
 "TxRefAmp": 209.645,
 "dcmmeta_affine": [
  [
   -2.0,
   0.0,
   0.0,
   100.67469787597656
  ],
  [
   0.0,
   1.9995613098144531,
   -0.04188483953475952,
   -82.38557434082031
  ],
  [
   0.0,
   0.04188483953475952,
   1.9995613098144531,
   -38.7428092956543
  ],
  [
   0.0,
   0.0,
   0.0,
   1.0
  ]
 ],
 "dcmmeta_reorient_transform": [
  [
   0.0,
   -1.0,
   0.0,
   99.0
  ],
  [
   1.0,
   0.0,
   0.0,
   0.0
  ],
  [
   0.0,
   0.0,
   1.0,
   0.0
  ],
  [
   0.0,
   0.0,
   0.0,
   1.0
  ]
 ],
 "dcmmeta_shape": [
  100,
  100,
  72,
  241
 ],
 "dcmmeta_slice_dim": 2,
 "dcmmeta_version": 0.6,
 "global": {
  "const": {
   "AcquisitionMatrix": [
    100,
    0,
    0,
    100
   ],
   "AngioFlag": "N",
   "BitsAllocated": 16,
   "BitsStored": 12,
   "BodyPartExamined": "BRAIN",
   "Columns": 900,
   "EchoNumbers": 1,
   "EchoTime": 34.0,
   "EchoTrainLength": 100,
   "FlipAngle": 90.0,
   "HighBit": 11,
   "ImageOrientationPatient": [
    1.0,
    0.0,
    0.0,
    0.0,
    0.9997806834792,
    -0.0209424196753
   ],
   "ImagePositionPatient": [
    -900.67469877005,
    -915.39555069341,
    -17.842274867905
   ],
   "ImageType": [
    "ORIGINAL",
    "PRIMARY",
    "M",
    "ND",
    "MOSAIC"
   ],
   "ImagedNucleus": "1H",
   "ImagingFrequency": 123.257725,
   "InPlanePhaseEncodingDirection": "COL",
   "MRAcquisitionType": "2D",
   "MagneticFieldStrength": 3.0,
   "Manufacturer": "SIEMENS",
   "ManufacturerModelName": "Prisma",
   "Modality": "MR",
   "NumberOfAverages": 1.0,
   "NumberOfPhaseEncodingSteps": 100,
   "PercentPhaseFieldOfView": 100.0,
   "PercentSampling": 100.0,
   "PerformedProcedureStepStartTime": "144707.790000",
   "PhotometricInterpretation": "MONOCHROME2",
   "PixelBandwidth": 2380.0,
   "PixelRepresentation": 0,
   "PixelSpacing": [
    2.0,
    2.0
   ],
   "ProtocolName": "bold_100x100_s3_2x2x2_static_test_241",
   "RepetitionTime": 2000.0,
   "Rows": 900,
   "SAR": 0.07708213713902,
   "SamplesPerPixel": 1,
   "ScanOptions": "FS",
   "ScanningSequence": "EP",
   "SequenceName": "*epfid2d1_100",
   "SequenceVariant": "SK",
   "SeriesDescription": "bold_100x100_s3_2x2x2_static_test_241",
   "SeriesNumber": 13,
   "SeriesTime": "160337.285000",
   "SliceLocation": -37.00895955379,
   "SliceThickness": 2.0,
   "SmallestImagePixelValue": 0,
   "SoftwareVersions": "syngo MR E11",
   "SpacingBetweenSlices": 1.9999999965712,
   "SpecificCharacterSet": "ISO_IR 100",
   "StudyID": "1",
   "StudyTime": "144707.690000",
   "TransmitCoilName": "Body",
   "VariableFlipAngleFlag": "N",
   "WindowCenterWidthExplanation": "Algo1",
   "dBdt": 0.0
  },
  "slices": {}
 },
 "time": {
  "samples": {
   "AcquisitionNumber": [
    1,
    2,
    3,
    4,
    5,
    6,
    7,
    8,
    9,
    10,
    11,
    12,
    13,
    14,
    15,
    16,
    17,
    18,
    19,
    20,
    21,
    22,
    23,
    24,
    25,
    26,
    27,
    28,
    29,
    30,
    31,
    32,
    33,
    34,
    35,
    36,
    37,
    38,
    39,
    40,
    41,
    42,
    43,
    44,
    45,
    46,
    47,
    48,
    49,
    50,
    51,
    52,
    53,
    54,
    55,
    56,
    57,
    58,
    59,
    60,
    61,
    62,
    63,
    64,
    65,
    66,
    67,
    68,
    69,
    70,
    71,
    72,
    73,
    74,
    75,
    76,
    77,
    78,
    79,
    80,
    81,
    82,
    83,
    84,
    85,
    86,
    87,
    88,
    89,
    90,
    91,
    92,
    93,
    94,
    95,
    96,
    97,
    98,
    99,
    100,
    101,
    102,
    103,
    104,
    105,
    106,
    107,
    108,
    109,
    110,
    111,
    112,
    113,
    114,
    115,
    116,
    117,
    118,
    119,
    120,
    121,
    122,
    123,
    124,
    125,
    126,
    127,
    128,
    129,
    130,
    131,
    132,
    133,
    134,
    135,
    136,
    137,
    138,
    139,
    140,
    141,
    142,
    143,
    144,
    145,
    146,
    147,
    148,
    149,
    150,
    151,
    152,
    153,
    154,
    155,
    156,
    157,
    158,
    159,
    160,
    161,
    162,
    163,
    164,
    165,
    166,
    167,
    168,
    169,
    170,
    171,
    172,
    173,
    174,
    175,
    176,
    177,
    178,
    179,
    180,
    181,
    182,
    183,
    184,
    185,
    186,
    187,
    188,
    189,
    190,
    191,
    192,
    193,
    194,
    195,
    196,
    197,
    198,
    199,
    200,
    201,
    202,
    203,
    204,
    205,
    206,
    207,
    208,
    209,
    210,
    211,
    212,
    213,
    214,
    215,
    216,
    217,
    218,
    219,
    220,
    221,
    222,
    223,
    224,
    225,
    226,
    227,
    228,
    229,
    230,
    231,
    232,
    233,
    234,
    235,
    236,
    237,
    238,
    239,
    240,
    241
   ],
   "AcquisitionTime": [
    "160334.455000",
    "160336.455000",
    "160338.455000",
    "160340.455000",
    "160342.455000",
    "160344.455000",
    "160346.455000",
    "160348.455000",
    "160350.455000",
    "160352.455000",
    "160354.455000",
    "160356.455000",
    "160358.455000",
    "160400.455000",
    "160402.455000",
    "160404.455000",
    "160406.455000",
    "160408.455000",
    "160410.455000",
    "160412.455000",
    "160414.455000",
    "160416.455000",
    "160418.455000",
    "160420.455000",
    "160422.455000",
    "160424.455000",
    "160426.455000",
    "160428.455000",
    "160430.455000",
    "160432.455000",
    "160434.455000",
    "160436.455000",
    "160438.455000",
    "160440.455000",
    "160442.455000",
    "160444.455000",
    "160446.455000",
    "160448.455000",
    "160450.455000",
    "160452.455000",
    "160454.455000",
    "160456.455000",
    "160458.455000",
    "160500.455000",
    "160502.455000",
    "160504.455000",
    "160506.455000",
    "160508.455000",
    "160510.455000",
    "160512.455000",
    "160514.455000",
    "160516.455000",
    "160518.455000",
    "160520.455000",
    "160522.455000",
    "160524.455000",
    "160526.455000",
    "160528.455000",
    "160530.455000",
    "160532.455000",
    "160534.455000",
    "160536.455000",
    "160538.455000",
    "160540.455000",
    "160542.455000",
    "160544.455000",
    "160546.455000",
    "160548.455000",
    "160550.455000",
    "160552.455000",
    "160554.455000",
    "160556.455000",
    "160558.455000",
    "160600.455000",
    "160602.455000",
    "160604.455000",
    "160606.455000",
    "160608.455000",
    "160610.455000",
    "160612.455000",
    "160614.455000",
    "160616.455000",
    "160618.455000",
    "160620.455000",
    "160622.455000",
    "160624.455000",
    "160626.455000",
    "160628.455000",
    "160630.455000",
    "160632.455000",
    "160634.455000",
    "160636.455000",
    "160638.455000",
    "160640.455000",
    "160642.455000",
    "160644.455000",
    "160646.455000",
    "160648.455000",
    "160650.455000",
    "160652.455000",
    "160654.455000",
    "160656.455000",
    "160658.455000",
    "160700.455000",
    "160702.455000",
    "160704.455000",
    "160706.455000",
    "160708.455000",
    "160710.455000",
    "160712.455000",
    "160714.455000",
    "160716.455000",
    "160718.455000",
    "160720.455000",
    "160722.455000",
    "160724.455000",
    "160726.455000",
    "160728.455000",
    "160730.455000",
    "160732.455000",
    "160734.455000",
    "160736.455000",
    "160738.455000",
    "160740.455000",
    "160742.455000",
    "160744.455000",
    "160746.455000",
    "160748.455000",
    "160750.455000",
    "160752.455000",
    "160754.455000",
    "160756.455000",
    "160758.455000",
    "160800.455000",
    "160802.455000",
    "160804.455000",
    "160806.455000",
    "160808.455000",
    "160810.455000",
    "160812.455000",
    "160814.455000",
    "160816.455000",
    "160818.455000",
    "160820.455000",
    "160822.455000",
    "160824.455000",
    "160826.455000",
    "160828.455000",
    "160830.455000",
    "160832.455000",
    "160834.455000",
    "160836.455000",
    "160838.455000",
    "160840.455000",
    "160842.455000",
    "160844.455000",
    "160846.455000",
    "160848.455000",
    "160850.455000",
    "160852.455000",
    "160854.455000",
    "160856.455000",
    "160858.455000",
    "160900.455000",
    "160902.455000",
    "160904.455000",
    "160906.455000",
    "160908.455000",
    "160910.455000",
    "160912.455000",
    "160914.455000",
    "160916.455000",
    "160918.455000",
    "160920.455000",
    "160922.455000",
    "160924.455000",
    "160926.455000",
    "160928.455000",
    "160930.455000",
    "160932.455000",
    "160934.455000",
    "160936.455000",
    "160938.455000",
    "160940.455000",
    "160942.455000",
    "160944.455000",
    "160946.455000",
    "160948.455000",
    "160950.455000",
    "160952.455000",
    "160954.455000",
    "160956.455000",
    "160958.455000",
    "161000.455000",
    "161002.455000",
    "161004.455000",
    "161006.455000",
    "161008.455000",
    "161010.455000",
    "161012.455000",
    "161014.455000",
    "161016.455000",
    "161018.455000",
    "161020.455000",
    "161022.455000",
    "161024.455000",
    "161026.455000",
    "161028.455000",
    "161030.455000",
    "161032.455000",
    "161034.455000",
    "161036.455000",
    "161038.455000",
    "161040.455000",
    "161042.455000",
    "161044.455000",
    "161046.455000",
    "161048.455000",
    "161050.455000",
    "161052.455000",
    "161054.455000",
    "161056.455000",
    "161058.455000",
    "161100.455000",
    "161102.455000",
    "161104.455000",
    "161106.455000",
    "161108.455000",
    "161110.455000",
    "161112.455000",
    "161114.455000",
    "161116.455000",
    "161118.455000",
    "161120.455000",
    "161122.455000",
    "161124.455000",
    "161126.455000",
    "161128.455000",
    "161130.455000",
    "161132.455000",
    "161134.455000"
   ],
   "ContentTime": [
    "160337.289000",
    "160338.784000",
    "160340.785000",
    "160342.785000",
    "160344.786000",
    "160346.785000",
    "160348.786000",
    "160350.785000",
    "160353.284000",
    "160355.284000",
    "160356.784000",
    "160358.785000",
    "160400.785000",
    "160402.785000",
    "160405.286000",
    "160407.285000",
    "160408.786000",
    "160410.785000",
    "160412.784000",
    "160414.784000",
    "160416.785000",
    "160418.785000",
    "160420.786000",
    "160422.786000",
    "160424.785000",
    "160426.786000",
    "160428.784000",
    "160430.784000",
    "160432.785000",
    "160434.784000",
    "160436.785000",
    "160438.786000",
    "160440.786000",
    "160442.786000",
    "160444.785000",
    "160446.784000",
    "160449.284000",
    "160450.784000",
    "160452.785000",
    "160454.786000",
    "160456.786000",
    "160459.285000",
    "160500.785000",
    "160503.284000",
    "160504.785000",
    "160507.285000",
    "160508.784000",
    "160510.786000",
    "160512.786000",
    "160515.285000",
    "160516.785000",
    "160518.786000",
    "160520.784000",
    "160522.784000",
    "160524.784000",
    "160526.784000",
    "160528.785000",
    "160530.785000",
    "160532.785000",
    "160534.786000",
    "160537.285000",
    "160538.785000",
    "160540.785000",
    "160543.285000",
    "160544.785000",
    "160546.786000",
    "160548.786000",
    "160550.785000",
    "160552.786000",
    "160554.786000",
    "160557.285000",
    "160559.285000",
    "160600.784000",
    "160602.784000",
    "160604.785000",
    "160606.785000",
    "160608.786000",
    "160610.786000",
    "160612.784000",
    "160614.785000",
    "160616.785000",
    "160618.785000",
    "160620.786000",
    "160622.785000",
    "160624.785000",
    "160626.785000",
    "160628.786000",
    "160630.785000",
    "160632.785000",
    "160634.785000",
    "160636.784000",
    "160638.785000",
    "160640.786000",
    "160642.786000",
    "160644.785000",
    "160646.785000",
    "160648.785000",
    "160650.784000",
    "160652.784000",
    "160654.784000",
    "160657.286000",
    "160658.786000",
    "160700.785000",
    "160702.786000",
    "160704.785000",
    "160706.784000",
    "160708.784000",
    "160710.785000",
    "160713.286000",
    "160714.786000",
    "160716.785000",
    "160718.786000",
    "160720.785000",
    "160722.784000",
    "160724.784000",
    "160727.284000",
    "160729.284000",
    "160730.785000",
    "160732.785000",
    "160734.786000",
    "160736.785000",
    "160738.786000",
    "160740.784000",
    "160742.785000",
    "160745.285000",
    "160746.784000",
    "160749.286000",
    "160750.786000",
    "160752.785000",
    "160755.286000",
    "160756.786000",
    "160759.284000",
    "160800.784000",
    "160803.285000",
    "160804.785000",
    "160806.785000",
    "160808.786000",
    "160811.285000",
    "160813.286000",
    "160814.785000",
    "160816.785000",
    "160818.785000",
    "160820.784000",
    "160822.785000",
    "160824.786000",
    "160826.785000",
    "160828.785000",
    "160830.785000",
    "160832.784000",
    "160834.784000",
    "160836.785000",
    "160838.785000",
    "160840.786000",
    "160842.785000",
    "160844.785000",
    "160846.785000",
    "160848.786000",
    "160850.784000",
    "160852.784000",
    "160854.785000",
    "160856.785000",
    "160859.286000",
    "160900.786000",
    "160902.785000",
    "160904.786000",
    "160907.285000",
    "160908.784000",
    "160910.785000",
    "160912.784000",
    "160914.784000",
    "160916.786000",
    "160919.286000",
    "160920.786000",
    "160922.785000",
    "160924.786000",
    "160926.784000",
    "160928.784000",
    "160930.784000",
    "160932.784000",
    "160935.285000",
    "160937.286000",
    "160938.786000",
    "160940.785000",
    "160942.785000",
    "160944.784000",
    "160946.785000",
    "160948.784000",
    "160950.786000",
    "160952.785000",
    "160954.786000",
    "160956.785000",
    "160958.785000",
    "161000.785000",
    "161002.785000",
    "161004.784000",
    "161006.785000",
    "161008.787000",
    "161010.786000",
    "161012.786000",
    "161015.285000",
    "161016.785000",
    "161018.785000",
    "161020.784000",
    "161022.784000",
    "161024.784000",
    "161026.786000",
    "161028.785000",
    "161030.785000",
    "161032.785000",
    "161034.795000",
    "161037.284000",
    "161038.784000",
    "161040.784000",
    "161042.784000",
    "161044.785000",
    "161046.785000",
    "161048.785000",
    "161050.786000",
    "161052.784000",
    "161054.784000",
    "161056.784000",
    "161058.784000",
    "161100.785000",
    "161102.785000",
    "161104.785000",
    "161106.785000",
    "161108.786000",
    "161110.785000",
    "161112.785000",
    "161114.785000",
    "161116.784000",
    "161119.285000",
    "161121.286000",
    "161122.785000",
    "161124.785000",
    "161126.785000",
    "161128.785000",
    "161130.784000",
    "161132.785000",
    "161135.285000",
    "161136.761000"
   ],
   "InstanceCreationTime": [
    "160337.289000",
    "160338.784000",
    "160340.785000",
    "160342.785000",
    "160344.786000",
    "160346.785000",
    "160348.786000",
    "160350.785000",
    "160353.284000",
    "160355.284000",
    "160356.784000",
    "160358.785000",
    "160400.785000",
    "160402.785000",
    "160405.286000",
    "160407.285000",
    "160408.786000",
    "160410.785000",
    "160412.784000",
    "160414.784000",
    "160416.785000",
    "160418.785000",
    "160420.786000",
    "160422.786000",
    "160424.785000",
    "160426.786000",
    "160428.784000",
    "160430.784000",
    "160432.785000",
    "160434.784000",
    "160436.785000",
    "160438.786000",
    "160440.786000",
    "160442.786000",
    "160444.785000",
    "160446.784000",
    "160449.284000",
    "160450.784000",
    "160452.785000",
    "160454.786000",
    "160456.786000",
    "160459.285000",
    "160500.785000",
    "160503.284000",
    "160504.785000",
    "160507.285000",
    "160508.784000",
    "160510.786000",
    "160512.786000",
    "160515.285000",
    "160516.785000",
    "160518.786000",
    "160520.784000",
    "160522.784000",
    "160524.784000",
    "160526.784000",
    "160528.785000",
    "160530.785000",
    "160532.785000",
    "160534.786000",
    "160537.285000",
    "160538.785000",
    "160540.785000",
    "160543.285000",
    "160544.785000",
    "160546.786000",
    "160548.786000",
    "160550.785000",
    "160552.786000",
    "160554.786000",
    "160557.285000",
    "160559.285000",
    "160600.784000",
    "160602.784000",
    "160604.785000",
    "160606.785000",
    "160608.786000",
    "160610.786000",
    "160612.784000",
    "160614.785000",
    "160616.785000",
    "160618.785000",
    "160620.786000",
    "160622.785000",
    "160624.785000",
    "160626.785000",
    "160628.786000",
    "160630.785000",
    "160632.785000",
    "160634.785000",
    "160636.784000",
    "160638.785000",
    "160640.786000",
    "160642.786000",
    "160644.785000",
    "160646.785000",
    "160648.785000",
    "160650.784000",
    "160652.784000",
    "160654.784000",
    "160657.286000",
    "160658.786000",
    "160700.785000",
    "160702.786000",
    "160704.785000",
    "160706.784000",
    "160708.784000",
    "160710.785000",
    "160713.286000",
    "160714.786000",
    "160716.785000",
    "160718.786000",
    "160720.785000",
    "160722.784000",
    "160724.784000",
    "160727.284000",
    "160729.284000",
    "160730.785000",
    "160732.785000",
    "160734.786000",
    "160736.785000",
    "160738.786000",
    "160740.784000",
    "160742.785000",
    "160745.285000",
    "160746.784000",
    "160749.286000",
    "160750.786000",
    "160752.785000",
    "160755.286000",
    "160756.786000",
    "160759.284000",
    "160800.784000",
    "160803.285000",
    "160804.785000",
    "160806.785000",
    "160808.786000",
    "160811.285000",
    "160813.286000",
    "160814.785000",
    "160816.785000",
    "160818.785000",
    "160820.784000",
    "160822.785000",
    "160824.786000",
    "160826.785000",
    "160828.785000",
    "160830.785000",
    "160832.784000",
    "160834.784000",
    "160836.785000",
    "160838.785000",
    "160840.786000",
    "160842.785000",
    "160844.785000",
    "160846.785000",
    "160848.786000",
    "160850.784000",
    "160852.784000",
    "160854.785000",
    "160856.785000",
    "160859.286000",
    "160900.786000",
    "160902.785000",
    "160904.786000",
    "160907.285000",
    "160908.784000",
    "160910.785000",
    "160912.784000",
    "160914.784000",
    "160916.786000",
    "160919.286000",
    "160920.786000",
    "160922.785000",
    "160924.786000",
    "160926.784000",
    "160928.784000",
    "160930.784000",
    "160932.784000",
    "160935.285000",
    "160937.286000",
    "160938.786000",
    "160940.785000",
    "160942.785000",
    "160944.784000",
    "160946.785000",
    "160948.784000",
    "160950.786000",
    "160952.785000",
    "160954.786000",
    "160956.785000",
    "160958.785000",
    "161000.785000",
    "161002.785000",
    "161004.784000",
    "161006.785000",
    "161008.787000",
    "161010.786000",
    "161012.786000",
    "161015.285000",
    "161016.785000",
    "161018.785000",
    "161020.784000",
    "161022.784000",
    "161024.784000",
    "161026.786000",
    "161028.785000",
    "161030.785000",
    "161032.785000",
    "161034.795000",
    "161037.284000",
    "161038.784000",
    "161040.784000",
    "161042.784000",
    "161044.785000",
    "161046.785000",
    "161048.785000",
    "161050.786000",
    "161052.784000",
    "161054.784000",
    "161056.784000",
    "161058.784000",
    "161100.785000",
    "161102.785000",
    "161104.785000",
    "161106.785000",
    "161108.786000",
    "161110.785000",
    "161112.785000",
    "161114.785000",
    "161116.784000",
    "161119.285000",
    "161121.286000",
    "161122.785000",
    "161124.785000",
    "161126.785000",
    "161128.785000",
    "161130.784000",
    "161132.785000",
    "161135.285000",
    "161136.761000"
   ],
   "InstanceNumber": [
    1,
    2,
    3,
    4,
    5,
    6,
    7,
    8,
    9,
    10,
    11,
    12,
    13,
    14,
    15,
    16,
    17,
    18,
    19,
    20,
    21,
    22,
    23,
    24,
    25,
    26,
    27,
    28,
    29,
    30,
    31,
    32,
    33,
    34,
    35,
    36,
    37,
    38,
    39,
    40,
    41,
    42,
    43,
    44,
    45,
    46,
    47,
    48,
    49,
    50,
    51,
    52,
    53,
    54,
    55,
    56,
    57,
    58,
    59,
    60,
    61,
    62,
    63,
    64,
    65,
    66,
    67,
    68,
    69,
    70,
    71,
    72,
    73,
    74,
    75,
    76,
    77,
    78,
    79,
    80,
    81,
    82,
    83,
    84,
    85,
    86,
    87,
    88,
    89,
    90,
    91,
    92,
    93,
    94,
    95,
    96,
    97,
    98,
    99,
    100,
    101,
    102,
    103,
    104,
    105,
    106,
    107,
    108,
    109,
    110,
    111,
    112,
    113,
    114,
    115,
    116,
    117,
    118,
    119,
    120,
    121,
    122,
    123,
    124,
    125,
    126,
    127,
    128,
    129,
    130,
    131,
    132,
    133,
    134,
    135,
    136,
    137,
    138,
    139,
    140,
    141,
    142,
    143,
    144,
    145,
    146,
    147,
    148,
    149,
    150,
    151,
    152,
    153,
    154,
    155,
    156,
    157,
    158,
    159,
    160,
    161,
    162,
    163,
    164,
    165,
    166,
    167,
    168,
    169,
    170,
    171,
    172,
    173,
    174,
    175,
    176,
    177,
    178,
    179,
    180,
    181,
    182,
    183,
    184,
    185,
    186,
    187,
    188,
    189,
    190,
    191,
    192,
    193,
    194,
    195,
    196,
    197,
    198,
    199,
    200,
    201,
    202,
    203,
    204,
    205,
    206,
    207,
    208,
    209,
    210,
    211,
    212,
    213,
    214,
    215,
    216,
    217,
    218,
    219,
    220,
    221,
    222,
    223,
    224,
    225,
    226,
    227,
    228,
    229,
    230,
    231,
    232,
    233,
    234,
    235,
    236,
    237,
    238,
    239,
    240,
    241
   ],
   "LargestImagePixelValue": [
    2877,
    2914,
    2840,
    2844,
    2877,
    2839,
    2781,
    2846,
    2846,
    2764,
    2937,
    2785,
    2737,
    2794,
    2793,
    2941,
    2890,
    2911,
    2909,
    2855,
    2871,
    2887,
    2931,
    2874,
    2839,
    2884,
    2783,
    2924,
    2846,
    2749,
    2830,
    2804,
    2828,
    2831,
    2696,
    2845,
    2657,
    2673,
    2659,
    2767,
    2765,
    2935,
    2821,
    2785,
    2717,
    2684,
    2789,
    2693,
    2817,
    2895,
    2851,
    2958,
    2943,
    2928,
    2895,
    2866,
    2799,
    2910,
    2865,
    2770,
    2724,
    2664,
    2731,
    2872,
    2789,
    2903,
    2808,
    2646,
    2796,
    2703,
    2660,
    2661,
    2634,
    2700,
    2767,
    2709,
    2676,
    2828,
    2654,
    2668,
    2782,
    2671,
    2658,
    2669,
    2701,
    2676,
    2677,
    2736,
    2889,
    2859,
    2852,
    2893,
    2918,
    2834,
    2763,
    2918,
    2829,
    2874,
    2804,
    2682,
    2812,
    2741,
    2674,
    2787,
    2727,
    2687,
    2863,
    2690,
    2808,
    2782,
    2865,
    2956,
    2885,
    2896,
    2963,
    2885,
    2831,
    2954,
    2940,
    2781,
    2696,
    2867,
    2737,
    2704,
    2701,
    2719,
    2733,
    2952,
    2938,
    2961,
    2932,
    2893,
    2922,
    2762,
    2955,
    2914,
    2865,
    2904,
    2902,
    2907,
    2923,
    2755,
    2889,
    2936,
    2867,
    2890,
    2965,
    2839,
    2902,
    2932,
    2663,
    2672,
    2849,
    2769,
    2720,
    2883,
    2771,
    2672,
    2898,
    2855,
    2973,
    2848,
    2863,
    2878,
    2853,
    2826,
    2868,
    2820,
    2829,
    2907,
    2819,
    2773,
    2891,
    2792,
    2702,
    2756,
    2701,
    2654,
    2851,
    2682,
    2731,
    2828,
    2840,
    2796,
    2743,
    2792,
    2686,
    2683,
    2737,
    2713,
    2754,
    2912,
    2806,
    2753,
    2826,
    2787,
    2804,
    2822,
    2889,
    2793,
    2740,
    2853,
    2789,
    2737,
    2672,
    2748,
    2813,
    2727,
    2740,
    2911,
    2715,
    2700,
    2771,
    2897,
    2805,
    2771,
    2822,
    2745,
    2695,
    2802,
    2870,
    2694,
    2673,
    2808,
    2730,
    2740,
    2794,
    2700,
    2819,
    2794,
    2705,
    2763,
    2799,
    2677,
    2683,
    2675,
    2714,
    2664,
    2663,
    2635,
    2718
   ],
   "WindowCenter": [
    762.0,
    761.0,
    760.0,
    760.0,
    761.0,
    760.0,
    759.0,
    760.0,
    760.0,
    759.0,
    760.0,
    758.0,
    759.0,
    759.0,
    759.0,
    760.0,
    759.0,
    760.0,
    760.0,
    759.0,
    760.0,
    760.0,
    761.0,
    760.0,
    759.0,
    759.0,
    758.0,
    759.0,
    757.0,
    757.0,
    758.0,
    758.0,
    758.0,
    758.0,
    756.0,
    757.0,
    756.0,
    756.0,
    756.0,
    757.0,
    757.0,
    759.0,
    759.0,
    758.0,
    756.0,
    756.0,
    757.0,
    756.0,
    757.0,
    758.0,
    758.0,
    760.0,
    761.0,
    761.0,
    760.0,
    759.0,
    758.0,
    759.0,
    759.0,
    758.0,
    757.0,
    755.0,
    757.0,
    759.0,
    759.0,
    759.0,
    757.0,
    755.0,
    757.0,
    756.0,
    756.0,
    756.0,
    756.0,
    757.0,
    757.0,
    756.0,
    755.0,
    756.0,
    754.0,
    755.0,
    757.0,
    756.0,
    755.0,
    756.0,
    757.0,
    756.0,
    757.0,
    757.0,
    759.0,
    759.0,
    760.0,
    760.0,
    759.0,
    759.0,
    758.0,
    759.0,
    758.0,
    758.0,
    757.0,
    756.0,
    758.0,
    757.0,
    756.0,
    757.0,
    758.0,
    758.0,
    758.0,
    757.0,
    757.0,
    758.0,
    759.0,
    760.0,
    759.0,
    759.0,
    759.0,
    759.0,
    759.0,
    760.0,
    758.0,
    757.0,
    756.0,
    757.0,
    756.0,
    756.0,
    756.0,
    756.0,
    757.0,
    760.0,
    761.0,
    761.0,
    761.0,
    760.0,
    760.0,
    758.0,
    759.0,
    759.0,
    760.0,
    761.0,
    761.0,
    759.0,
    758.0,
    756.0,
    758.0,
    758.0,
    758.0,
    758.0,
    758.0,
    757.0,
    758.0,
    758.0,
    755.0,
    756.0,
    757.0,
    756.0,
    756.0,
    757.0,
    756.0,
    756.0,
    759.0,
    758.0,
    760.0,
    760.0,
    762.0,
    762.0,
    761.0,
    760.0,
    760.0,
    759.0,
    759.0,
    759.0,
    759.0,
    759.0,
    760.0,
    760.0,
    759.0,
    759.0,
    758.0,
    758.0,
    760.0,
    759.0,
    760.0,
    760.0,
    761.0,
    760.0,
    758.0,
    759.0,
    759.0,
    759.0,
    759.0,
    758.0,
    758.0,
    761.0,
    760.0,
    759.0,
    759.0,
    759.0,
    760.0,
    759.0,
    760.0,
    759.0,
    760.0,
    759.0,
    757.0,
    756.0,
    755.0,
    756.0,
    756.0,
    757.0,
    758.0,
    760.0,
    757.0,
    757.0,
    759.0,
    760.0,
    759.0,
    759.0,
    759.0,
    758.0,
    758.0,
    758.0,
    759.0,
    758.0,
    759.0,
    761.0,
    759.0,
    759.0,
    759.0,
    759.0,
    761.0,
    761.0,
    759.0,
    758.0,
    756.0,
    753.0,
    753.0,
    753.0,
    753.0,
    754.0,
    754.0,
    755.0,
    757.0
   ],
   "WindowWidth": [
    1644.0,
    1641.0,
    1638.0,
    1638.0,
