{
 "AcquisitionMatrixPE": 100,
 "AcquisitionNumber": 1,
 "AcquisitionTime": "15:46:3.700000",
 "BandwidthPerPixelPhaseEncode": 18.519,
 "BaseResolution": 100,
 "BodyPartExamined": "BRAIN",
 "ConsistencyInfo": "N4_VE11C_LATEST_20160120",
 "ConversionSoftware": "dcm2niix",
 "ConversionSoftwareVersion": "v1.0.20180622 GCC4.9.2",
 "DerivedVendorReportedEchoSpacing": 0.000539986,
 "DeviceSerialNumber": "166078",
 "DwellTime": 2.1e-06,
 "EchoTime": 0.034,
 "EchoTrainLength": 100,
 "EffectiveEchoSpacing": 0.000539986,
 "FlipAngle": 90,
 "ImageOrientationPatientDICOM": [
  1,
  0,
  0,
  0,
  0.999781,
  -0.0209424
 ],
 "ImageType": [
  "ORIGINAL",
  "PRIMARY",
  "M",
  "ND",
  "MOSAIC"
 ],
 "InPlanePhaseEncodingDirectionDICOM": "COL",
 "InstitutionAddress": "Street_StreetNo_Bei_Jing_District_CN_ZIP",
 "InstitutionName": "BeiJing_Normal_University",
 "InstitutionalDepartmentName": "Department",
 "MRAcquisitionType": "2D",
 "MagneticFieldStrength": 3,
 "Manufacturer": "Siemens",
 "ManufacturersModelName": "Prisma",
 "Modality": "MR",
 "MultibandAccelerationFactor": 3,
 "PartialFourier": 1,
 "PatientPosition": "HFS",
 "PercentPhaseFOV": 100,
 "PhaseEncodingDirection": "j-",
 "PhaseEncodingSteps": 100,
 "PhaseResolution": 1,
 "PixelBandwidth": 2380,
 "ProcedureStepDescription": "BNU_P2018_64CH_Zhen.ZongLei",
 "ProtocolName": "bold_100x100_s3_2x2x2_static_test_241",
 "PulseSequenceDetails": "%SiemensSeq%_ep2d_bold",
 "ReceiveCoilActiveElements": "HC1-7;NC1",
 "ReceiveCoilName": "HeadNeck_64",
 "ReconMatrixPE": 100,
 "RepetitionTime": 2,
 "SAR": 0.0770821,
 "ScanOptions": "FS",
 "ScanningSequence": "EP",
 "SequenceName": "_epfid2d1_100",
 "SequenceVariant": "SK",
 "SeriesDescription": "bold_100x100_s3_2x2x2_static_test_241",
 "SeriesNumber": 11,
 "ShimSetting": [
  -5450,
  -11528,
  -1197,
  543,
  14,
  -244,
  22,
  63
 ],
 "SliceThickness": 2,
 "SliceTiming": [
  1.4825,
  0,
  0.99,
  0.0825,
  1.0725,
  0.165,
  1.155,
  0.2475,
  1.2375,
  0.33,
  1.32,
  0.4125,
  1.4,
  0.5775,
  1.565,
  0.66,
  1.6475,
  0.7425,
  1.73,
  0.825,
  1.8125,
  0.9075,
  1.895,
  0.495,
  1.4825,
  0,
  0.99,
  0.0825,
  1.0725,
  0.165,
  1.155,
  0.2475,
  1.2375,
  0.33,
  1.32,
  0.4125,
  1.4,
  0.5775,
  1.565,
  0.66,
  1.6475,
  0.7425,
  1.73,
  0.825,
  1.8125,
  0.9075,
  1.895,
  0.495,
  1.4825,
  0,
  0.99,
  0.0825,
  1.0725,
  0.165,
  1.155,
  0.2475,
  1.2375,
  0.33,
  1.32,
  0.4125,
  1.4,
  0.5775,
  1.565,
  0.66,
  1.6475,
  0.7425,
  1.73,
  0.825,
  1.8125,
  0.9075,
  1.895,
  0.495
 ],
 "SoftwareVersions": "syngo_MR_E11",
 "SpacingBetweenSlices": 2,
 "StationName": "AWP166078",
 "TaskName": "coco",
 "TotalReadoutTime": 0.0534586,
 "TxRefAmp": 209.645,
 "dcmmeta_affine": [
  [
   -2.0,
   0.0,
   0.0,
   100.67469787597656
  ],
  [
   0.0,
   1.9995613098144531,
   -0.04188483953475952,
   -82.38557434082031
  ],
  [
   0.0,
   0.04188483953475952,
   1.9995613098144531,
   -38.7428092956543
  ],
  [
   0.0,
   0.0,
   0.0,
   1.0
  ]
 ],
 "dcmmeta_reorient_transform": [
  [
   0.0,
   -1.0,
   0.0,
   99.0
  ],
  [
   1.0,
   0.0,
   0.0,
   0.0
  ],
  [
   0.0,
   0.0,
   1.0,
   0.0
  ],
  [
   0.0,
   0.0,
   0.0,
   1.0
  ]
 ],
 "dcmmeta_shape": [
  100,
  100,
  72,
  241
 ],
 "dcmmeta_slice_dim": 2,
 "dcmmeta_version": 0.6,
 "global": {
  "const": {
   "AcquisitionMatrix": [
    100,
    0,
    0,
    100
   ],
   "AngioFlag": "N",
   "BitsAllocated": 16,
   "BitsStored": 12,
   "BodyPartExamined": "BRAIN",
   "Columns": 900,
   "EchoNumbers": 1,
   "EchoTime": 34.0,
   "EchoTrainLength": 100,
   "FlipAngle": 90.0,
   "HighBit": 11,
   "ImageOrientationPatient": [
    1.0,
    0.0,
    0.0,
    0.0,
    0.9997806834792,
    -0.0209424196753
   ],
   "ImagePositionPatient": [
    -900.67469877005,
    -915.39555069341,
    -17.842274867905
   ],
   "ImageType": [
    "ORIGINAL",
    "PRIMARY",
    "M",
    "ND",
    "MOSAIC"
   ],
   "ImagedNucleus": "1H",
   "ImagingFrequency": 123.257724,
   "InPlanePhaseEncodingDirection": "COL",
   "MRAcquisitionType": "2D",
   "MagneticFieldStrength": 3.0,
   "Manufacturer": "SIEMENS",
   "ManufacturerModelName": "Prisma",
   "Modality": "MR",
   "NumberOfAverages": 1.0,
   "NumberOfPhaseEncodingSteps": 100,
   "PercentPhaseFieldOfView": 100.0,
   "PercentSampling": 100.0,
   "PerformedProcedureStepStartTime": "144707.790000",
   "PhotometricInterpretation": "MONOCHROME2",
   "PixelBandwidth": 2380.0,
   "PixelRepresentation": 0,
   "PixelSpacing": [
    2.0,
    2.0
   ],
   "ProtocolName": "bold_100x100_s3_2x2x2_static_test_241",
   "RepetitionTime": 2000.0,
   "Rows": 900,
   "SAR": 0.07708213713902,
   "SamplesPerPixel": 1,
   "ScanOptions": "FS",
   "ScanningSequence": "EP",
   "SequenceName": "*epfid2d1_100",
   "SequenceVariant": "SK",
   "SeriesDescription": "bold_100x100_s3_2x2x2_static_test_241",
   "SeriesNumber": 11,
   "SeriesTime": "154606.433000",
   "SliceLocation": -37.00895955379,
   "SliceThickness": 2.0,
   "SmallestImagePixelValue": 0,
   "SoftwareVersions": "syngo MR E11",
   "SpacingBetweenSlices": 1.9999999965712,
   "SpecificCharacterSet": "ISO_IR 100",
   "StudyID": "1",
   "StudyTime": "144707.690000",
   "TransmitCoilName": "Body",
   "VariableFlipAngleFlag": "N",
   "WindowCenterWidthExplanation": "Algo1",
   "dBdt": 0.0
  },
  "slices": {}
 },
 "time": {
  "samples": {
   "AcquisitionNumber": [
    1,
    2,
    3,
    4,
    5,
    6,
    7,
    8,
    9,
    10,
    11,
    12,
    13,
    14,
    15,
    16,
    17,
    18,
    19,
    20,
    21,
    22,
    23,
    24,
    25,
    26,
    27,
    28,
    29,
    30,
    31,
    32,
    33,
    34,
    35,
    36,
    37,
    38,
    39,
    40,
    41,
    42,
    43,
    44,
    45,
    46,
    47,
    48,
    49,
    50,
    51,
    52,
    53,
    54,
    55,
    56,
    57,
    58,
    59,
    60,
    61,
    62,
    63,
    64,
    65,
    66,
    67,
    68,
    69,
    70,
    71,
    72,
    73,
    74,
    75,
    76,
    77,
    78,
    79,
    80,
    81,
    82,
    83,
    84,
    85,
    86,
    87,
    88,
    89,
    90,
    91,
    92,
    93,
    94,
    95,
    96,
    97,
    98,
    99,
    100,
    101,
    102,
    103,
    104,
    105,
    106,
    107,
    108,
    109,
    110,
    111,
    112,
    113,
    114,
    115,
    116,
    117,
    118,
    119,
    120,
    121,
    122,
    123,
    124,
    125,
    126,
    127,
    128,
    129,
    130,
    131,
    132,
    133,
    134,
    135,
    136,
    137,
    138,
    139,
    140,
    141,
    142,
    143,
    144,
    145,
    146,
    147,
    148,
    149,
    150,
    151,
    152,
    153,
    154,
    155,
    156,
    157,
    158,
    159,
    160,
    161,
    162,
    163,
    164,
    165,
    166,
    167,
    168,
    169,
    170,
    171,
    172,
    173,
    174,
    175,
    176,
    177,
    178,
    179,
    180,
    181,
    182,
    183,
    184,
    185,
    186,
    187,
    188,
    189,
    190,
    191,
    192,
    193,
    194,
    195,
    196,
    197,
    198,
    199,
    200,
    201,
    202,
    203,
    204,
    205,
    206,
    207,
    208,
    209,
    210,
    211,
    212,
    213,
    214,
    215,
    216,
    217,
    218,
    219,
    220,
    221,
    222,
    223,
    224,
    225,
    226,
    227,
    228,
    229,
    230,
    231,
    232,
    233,
    234,
    235,
    236,
    237,
    238,
    239,
    240,
    241
   ],
   "AcquisitionTime": [
    "154603.700000",
    "154605.700000",
    "154607.700000",
    "154609.700000",
    "154611.700000",
    "154613.700000",
    "154615.700000",
    "154617.700000",
    "154619.700000",
    "154621.700000",
    "154623.700000",
    "154625.700000",
    "154627.700000",
    "154629.700000",
    "154631.700000",
    "154633.700000",
    "154635.700000",
    "154637.700000",
    "154639.700000",
    "154641.700000",
    "154643.700000",
    "154645.700000",
    "154647.700000",
    "154649.700000",
    "154651.700000",
    "154653.700000",
    "154655.700000",
    "154657.700000",
    "154659.700000",
    "154701.700000",
    "154703.700000",
    "154705.700000",
    "154707.700000",
    "154709.700000",
    "154711.700000",
    "154713.700000",
    "154715.700000",
    "154717.700000",
    "154719.700000",
    "154721.700000",
    "154723.700000",
    "154725.700000",
    "154727.700000",
    "154729.700000",
    "154731.700000",
    "154733.700000",
    "154735.700000",
    "154737.700000",
    "154739.700000",
    "154741.700000",
    "154743.700000",
    "154745.700000",
    "154747.700000",
    "154749.700000",
    "154751.700000",
    "154753.700000",
    "154755.700000",
    "154757.700000",
    "154759.700000",
    "154801.700000",
    "154803.700000",
    "154805.700000",
    "154807.700000",
    "154809.700000",
    "154811.700000",
    "154813.700000",
    "154815.700000",
    "154817.700000",
    "154819.700000",
    "154821.700000",
    "154823.700000",
    "154825.700000",
    "154827.700000",
    "154829.700000",
    "154831.700000",
    "154833.700000",
    "154835.700000",
    "154837.700000",
    "154839.700000",
    "154841.700000",
    "154843.700000",
    "154845.700000",
    "154847.700000",
    "154849.700000",
    "154851.700000",
    "154853.700000",
    "154855.700000",
    "154857.700000",
    "154859.700000",
    "154901.700000",
    "154903.700000",
    "154905.700000",
    "154907.700000",
    "154909.700000",
    "154911.700000",
    "154913.700000",
    "154915.700000",
    "154917.700000",
    "154919.700000",
    "154921.700000",
    "154923.700000",
    "154925.700000",
    "154927.700000",
    "154929.700000",
    "154931.700000",
    "154933.700000",
    "154935.700000",
    "154937.700000",
    "154939.700000",
    "154941.700000",
    "154943.700000",
    "154945.700000",
    "154947.700000",
    "154949.700000",
    "154951.700000",
    "154953.700000",
    "154955.700000",
    "154957.700000",
    "154959.700000",
    "155001.700000",
    "155003.700000",
    "155005.700000",
    "155007.700000",
    "155009.700000",
    "155011.700000",
    "155013.700000",
    "155015.700000",
    "155017.700000",
    "155019.700000",
    "155021.700000",
    "155023.700000",
    "155025.700000",
    "155027.700000",
    "155029.700000",
    "155031.700000",
    "155033.700000",
    "155035.700000",
    "155037.700000",
    "155039.700000",
    "155041.700000",
    "155043.700000",
    "155045.700000",
    "155047.700000",
    "155049.700000",
    "155051.700000",
    "155053.700000",
    "155055.700000",
    "155057.700000",
    "155059.700000",
    "155101.700000",
    "155103.700000",
    "155105.700000",
    "155107.700000",
    "155109.700000",
    "155111.700000",
    "155113.700000",
    "155115.700000",
    "155117.700000",
    "155119.700000",
    "155121.700000",
    "155123.700000",
    "155125.700000",
    "155127.700000",
    "155129.700000",
    "155131.700000",
    "155133.700000",
    "155135.700000",
    "155137.700000",
    "155139.700000",
    "155141.700000",
    "155143.700000",
    "155145.700000",
    "155147.700000",
    "155149.700000",
    "155151.700000",
    "155153.700000",
    "155155.700000",
    "155157.700000",
    "155159.700000",
    "155201.700000",
    "155203.700000",
    "155205.700000",
    "155207.700000",
    "155209.700000",
    "155211.700000",
    "155213.700000",
    "155215.700000",
    "155217.700000",
    "155219.700000",
    "155221.700000",
    "155223.700000",
    "155225.700000",
    "155227.700000",
    "155229.700000",
    "155231.700000",
    "155233.700000",
    "155235.700000",
    "155237.700000",
    "155239.700000",
    "155241.700000",
    "155243.700000",
    "155245.700000",
    "155247.700000",
    "155249.700000",
    "155251.700000",
    "155253.700000",
    "155255.700000",
    "155257.700000",
    "155259.700000",
    "155301.700000",
    "155303.700000",
    "155305.700000",
    "155307.700000",
    "155309.700000",
    "155311.700000",
    "155313.700000",
    "155315.700000",
    "155317.700000",
    "155319.700000",
    "155321.700000",
    "155323.700000",
    "155325.700000",
    "155327.700000",
    "155329.700000",
    "155331.700000",
    "155333.700000",
    "155335.700000",
    "155337.700000",
    "155339.700000",
    "155341.700000",
    "155343.700000",
    "155345.700000",
    "155347.700000",
    "155349.700000",
    "155351.700000",
    "155353.700000",
    "155355.700000",
    "155357.700000",
    "155359.700000",
    "155401.700000",
    "155403.700000"
   ],
   "ContentTime": [
    "154606.438000",
    "154607.932000",
    "154609.932000",
    "154611.932000",
    "154613.931000",
    "154615.932000",
    "154617.932000",
    "154619.932000",
    "154621.933000",
    "154623.932000",
    "154625.932000",
    "154627.931000",
    "154629.931000",
    "154631.932000",
    "154633.932000",
    "154635.932000",
    "154637.932000",
    "154639.932000",
    "154641.931000",
    "154643.931000",
    "154645.932000",
    "154647.931000",
    "154649.932000",
    "154651.933000",
    "154653.932000",
    "154655.932000",
    "154657.932000",
    "154659.931000",
    "154701.931000",
    "154703.932000",
    "154705.931000",
    "154707.932000",
    "154709.932000",
    "154711.933000",
    "154713.932000",
    "154715.933000",
    "154717.932000",
    "154719.931000",
    "154721.931000",
    "154723.932000",
    "154725.933000",
    "154727.932000",
    "154729.932000",
    "154731.933000",
    "154733.932000",
    "154735.932000",
    "154737.931000",
    "154739.932000",
    "154741.932000",
    "154743.933000",
    "154745.933000",
    "154747.932000",
    "154749.933000",
    "154751.931000",
    "154753.951000",
    "154755.932000",
    "154757.932000",
    "154759.933000",
    "154801.933000",
    "154803.933000",
    "154805.933000",
    "154807.932000",
    "154809.931000",
    "154811.931000",
    "154813.932000",
    "154815.931000",
    "154817.933000",
    "154819.932000",
    "154821.933000",
    "154823.932000",
    "154825.933000",
    "154827.932000",
    "154829.932000",
    "154831.932000",
    "154833.932000",
    "154835.933000",
    "154837.932000",
    "154839.932000",
    "154841.932000",
    "154843.933000",
    "154845.932000",
    "154847.932000",
    "154849.931000",
    "154851.933000",
    "154853.932000",
    "154855.933000",
    "154857.933000",
    "154859.932000",
    "154901.932000",
    "154903.932000",
    "154905.932000",
    "154907.932000",
    "154909.933000",
    "154911.933000",
    "154913.933000",
    "154915.933000",
    "154917.933000",
    "154919.932000",
    "154921.932000",
    "154923.931000",
    "154925.932000",
    "154927.933000",
    "154929.933000",
    "154931.933000",
    "154933.932000",
    "154935.932000",
    "154937.931000",
    "154939.932000",
    "154941.932000",
    "154943.932000",
    "154945.933000",
    "154947.933000",
    "154949.933000",
    "154951.933000",
    "154953.932000",
    "154955.932000",
    "154957.932000",
    "154959.931000",
    "155001.933000",
    "155003.933000",
    "155005.932000",
    "155007.933000",
    "155009.933000",
    "155011.932000",
    "155013.931000",
    "155015.932000",
    "155017.932000",
    "155019.936000",
    "155021.933000",
    "155023.935000",
    "155025.933000",
    "155027.933000",
    "155029.931000",
    "155031.932000",
    "155033.931000",
    "155035.931000",
    "155037.933000",
    "155039.933000",
    "155041.933000",
    "155043.933000",
    "155045.932000",
    "155047.932000",
    "155049.932000",
    "155051.939000",
    "155053.932000",
    "155055.933000",
    "155057.933000",
    "155059.933000",
    "155101.932000",
    "155103.933000",
    "155105.932000",
    "155107.931000",
    "155109.931000",
    "155111.933000",
    "155113.933000",
    "155115.933000",
    "155117.933000",
    "155119.933000",
    "155121.932000",
    "155123.931000",
    "155125.931000",
    "155127.931000",
    "155129.933000",
    "155131.932000",
    "155133.933000",
    "155135.933000",
    "155137.933000",
    "155139.931000",
    "155141.931000",
    "155143.932000",
    "155145.931000",
    "155147.933000",
    "155149.932000",
    "155151.933000",
    "155153.933000",
    "155155.932000",
    "155157.931000",
    "155159.932000",
    "155201.932000",
    "155203.931000",
    "155205.933000",
    "155207.933000",
    "155209.933000",
    "155211.933000",
    "155213.933000",
    "155215.932000",
    "155217.932000",
    "155219.932000",
    "155221.932000",
    "155223.933000",
    "155225.933000",
    "155227.932000",
    "155229.933000",
    "155231.931000",
    "155233.931000",
    "155235.932000",
    "155237.931000",
    "155239.933000",
    "155241.933000",
    "155243.933000",
    "155245.933000",
    "155247.933000",
    "155249.931000",
    "155251.932000",
    "155253.932000",
    "155255.932000",
    "155257.932000",
    "155259.933000",
    "155301.933000",
    "155303.932000",
    "155305.933000",
    "155307.932000",
    "155309.932000",
    "155311.932000",
    "155313.932000",
    "155315.933000",
    "155317.932000",
    "155319.933000",
    "155321.933000",
    "155323.932000",
    "155325.932000",
    "155327.932000",
    "155329.931000",
    "155331.935000",
    "155333.932000",
    "155335.933000",
    "155337.933000",
    "155339.933000",
    "155341.932000",
    "155343.932000",
    "155345.932000",
    "155347.932000",
    "155349.933000",
    "155351.933000",
    "155353.933000",
    "155355.933000",
    "155357.933000",
    "155359.932000",
    "155401.932000",
    "155403.932000",
    "155405.605000"
   ],
   "InstanceCreationTime": [
    "154606.438000",
    "154607.932000",
    "154609.932000",
    "154611.932000",
    "154613.931000",
    "154615.932000",
    "154617.932000",
    "154619.932000",
    "154621.933000",
    "154623.932000",
    "154625.932000",
    "154627.931000",
    "154629.931000",
    "154631.932000",
    "154633.932000",
    "154635.932000",
    "154637.932000",
    "154639.932000",
    "154641.931000",
    "154643.931000",
    "154645.932000",
    "154647.931000",
    "154649.932000",
    "154651.933000",
    "154653.932000",
    "154655.932000",
    "154657.932000",
    "154659.931000",
    "154701.931000",
    "154703.932000",
    "154705.931000",
    "154707.932000",
    "154709.932000",
    "154711.933000",
    "154713.932000",
    "154715.933000",
    "154717.932000",
    "154719.931000",
    "154721.931000",
    "154723.932000",
    "154725.933000",
    "154727.932000",
    "154729.932000",
    "154731.933000",
    "154733.932000",
    "154735.932000",
    "154737.931000",
    "154739.932000",
    "154741.932000",
    "154743.933000",
    "154745.933000",
    "154747.932000",
    "154749.933000",
    "154751.931000",
    "154753.951000",
    "154755.932000",
    "154757.932000",
    "154759.933000",
    "154801.933000",
    "154803.933000",
    "154805.933000",
    "154807.932000",
    "154809.931000",
    "154811.931000",
    "154813.932000",
    "154815.931000",
    "154817.933000",
    "154819.932000",
    "154821.933000",
    "154823.932000",
    "154825.933000",
    "154827.932000",
    "154829.932000",
    "154831.932000",
    "154833.932000",
    "154835.933000",
    "154837.932000",
    "154839.932000",
    "154841.932000",
    "154843.933000",
    "154845.932000",
    "154847.932000",
    "154849.931000",
    "154851.933000",
    "154853.932000",
    "154855.933000",
    "154857.933000",
    "154859.932000",
    "154901.932000",
    "154903.932000",
    "154905.932000",
    "154907.932000",
    "154909.933000",
    "154911.933000",
    "154913.933000",
    "154915.933000",
    "154917.933000",
    "154919.932000",
    "154921.932000",
    "154923.931000",
    "154925.932000",
    "154927.933000",
    "154929.933000",
    "154931.933000",
    "154933.932000",
    "154935.932000",
    "154937.931000",
    "154939.932000",
    "154941.932000",
    "154943.932000",
    "154945.933000",
    "154947.933000",
    "154949.933000",
    "154951.933000",
    "154953.932000",
    "154955.932000",
    "154957.932000",
    "154959.931000",
    "155001.933000",
    "155003.933000",
    "155005.932000",
    "155007.933000",
    "155009.933000",
    "155011.932000",
    "155013.931000",
    "155015.932000",
    "155017.932000",
    "155019.936000",
    "155021.933000",
    "155023.935000",
    "155025.933000",
    "155027.933000",
    "155029.931000",
    "155031.932000",
    "155033.931000",
    "155035.931000",
    "155037.933000",
    "155039.933000",
    "155041.933000",
    "155043.933000",
    "155045.932000",
    "155047.932000",
    "155049.932000",
    "155051.939000",
    "155053.932000",
    "155055.933000",
    "155057.933000",
    "155059.933000",
    "155101.932000",
    "155103.933000",
    "155105.932000",
    "155107.931000",
    "155109.931000",
    "155111.933000",
    "155113.933000",
    "155115.933000",
    "155117.933000",
    "155119.933000",
    "155121.932000",
    "155123.931000",
    "155125.931000",
    "155127.931000",
    "155129.933000",
    "155131.932000",
    "155133.933000",
    "155135.933000",
    "155137.933000",
    "155139.931000",
    "155141.931000",
    "155143.932000",
    "155145.931000",
    "155147.933000",
    "155149.932000",
    "155151.933000",
    "155153.933000",
    "155155.932000",
    "155157.931000",
    "155159.932000",
    "155201.932000",
    "155203.931000",
    "155205.933000",
    "155207.933000",
    "155209.933000",
    "155211.933000",
    "155213.933000",
    "155215.932000",
    "155217.932000",
    "155219.932000",
    "155221.932000",
    "155223.933000",
    "155225.933000",
    "155227.932000",
    "155229.933000",
    "155231.931000",
    "155233.931000",
    "155235.932000",
    "155237.931000",
    "155239.933000",
    "155241.933000",
    "155243.933000",
    "155245.933000",
    "155247.933000",
    "155249.931000",
    "155251.932000",
    "155253.932000",
    "155255.932000",
    "155257.932000",
    "155259.933000",
    "155301.933000",
    "155303.932000",
    "155305.933000",
    "155307.932000",
    "155309.932000",
    "155311.932000",
    "155313.932000",
    "155315.933000",
    "155317.932000",
    "155319.933000",
    "155321.933000",
    "155323.932000",
    "155325.932000",
    "155327.932000",
    "155329.931000",
    "155331.935000",
    "155333.932000",
    "155335.933000",
    "155337.933000",
    "155339.933000",
    "155341.932000",
    "155343.932000",
    "155345.932000",
    "155347.932000",
    "155349.933000",
    "155351.933000",
    "155353.933000",
    "155355.933000",
    "155357.933000",
    "155359.932000",
    "155401.932000",
    "155403.932000",
    "155405.605000"
   ],
   "InstanceNumber": [
    1,
    2,
    3,
    4,
    5,
    6,
    7,
    8,
    9,
    10,
    11,
    12,
    13,
    14,
    15,
    16,
    17,
    18,
    19,
    20,
    21,
    22,
    23,
    24,
    25,
    26,
    27,
    28,
    29,
    30,
    31,
    32,
    33,
    34,
    35,
    36,
    37,
    38,
    39,
    40,
    41,
    42,
    43,
    44,
    45,
    46,
    47,
    48,
    49,
    50,
    51,
    52,
    53,
    54,
    55,
    56,
    57,
    58,
    59,
    60,
    61,
    62,
    63,
    64,
    65,
    66,
    67,
    68,
    69,
    70,
    71,
    72,
    73,
    74,
    75,
    76,
    77,
    78,
    79,
    80,
    81,
    82,
    83,
    84,
    85,
    86,
    87,
    88,
    89,
    90,
    91,
    92,
    93,
    94,
    95,
    96,
    97,
    98,
    99,
    100,
    101,
    102,
    103,
    104,
    105,
    106,
    107,
    108,
    109,
    110,
    111,
    112,
    113,
    114,
    115,
    116,
    117,
    118,
    119,
    120,
    121,
    122,
    123,
    124,
    125,
    126,
    127,
    128,
    129,
    130,
    131,
    132,
    133,
    134,
    135,
    136,
    137,
    138,
    139,
    140,
    141,
    142,
    143,
    144,
    145,
    146,
    147,
    148,
    149,
    150,
    151,
    152,
    153,
    154,
    155,
    156,
    157,
    158,
    159,
    160,
    161,
    162,
    163,
    164,
    165,
    166,
    167,
    168,
    169,
    170,
    171,
    172,
    173,
    174,
    175,
    176,
    177,
    178,
    179,
    180,
    181,
    182,
    183,
    184,
    185,
    186,
    187,
    188,
    189,
    190,
    191,
    192,
    193,
    194,
    195,
    196,
    197,
    198,
    199,
    200,
    201,
    202,
    203,
    204,
    205,
    206,
    207,
    208,
    209,
    210,
    211,
    212,
    213,
    214,
    215,
    216,
    217,
    218,
    219,
    220,
    221,
    222,
    223,
    224,
    225,
    226,
    227,
    228,
    229,
    230,
    231,
    232,
    233,
    234,
    235,
    236,
    237,
    238,
    239,
    240,
    241
   ],
   "LargestImagePixelValue": [
    2808,
    2817,
    2754,
    2765,
    2770,
    2754,
    2765,
    2744,
    2746,
    2736,
    2758,
    2740,
    2761,
    2778,
    2769,
    2750,
    2747,
    2756,
    2744,
    2754,
    2726,
    2729,
    2789,
    2747,
    2757,
    2771,
    2756,
    2734,
    2740,
    2742,
    2754,
    2749,
    2759,
    2745,
    2729,
    2727,
    2731,
    2750,
    2726,
    2757,
    2737,
    2719,
    2733,
    2768,
    2731,
    2719,
    2750,
    2749,
    2748,
    2763,
    2721,
    2758,
    2704,
    2689,
    2700,
    2760,
    2704,
    2751,
    2746,
    2712,
    2735,
    2725,
    2734,
    2717,
    2756,
    2738,
    2699,
    2715,
    2715,
    2703,
    2682,
    2692,
    2660,
    2683,
    2709,
    2692,
    2702,
    2762,
    2635,
    2631,
    2636,
    2716,
    2735,
    2704,
    2764,
    2725,
    2744,
    2750,
    2727,
    2720,
    2743,
    2715,
    2764,
    2739,
    2713,
    2740,
    2727,
    2731,
    2703,
    2784,
    2736,
    2748,
    2734,
    2726,
    2747,
    2733,
    2740,
    2738,
    2702,
    2763,
    2736,
    2757,
    2725,
    2745,
    2735,
    2751,
    2731,
    2737,
    2731,
    2732,
    2741,
    2740,
    2721,
    2752,
    2735,
    2718,
    2721,
    2738,
    2746,
    2716,
    2706,
    2722,
    2738,
    2759,
    2745,
    2729,
    2738,
    2707,
    2652,
    2681,
    2644,
    2623,
    2669,
    2698,
    2718,
    2738,
    2713,
    2715,
    2693,
    2728,
    2702,
    2693,
    2677,
    2633,
    2670,
    2669,
    2672,
    2648,
    2704,
    2695,
    2692,
    2681,
    2620,
    2685,
    2674,
    2700,
    2699,
    2705,
    2729,
    2656,
    2607,
    2681,
    2696,
    2647,
    2682,
    2719,
    2628,
    2677,
    2685,
    2659,
    2686,
    2701,
    2711,
    2630,
    2631,
    2630,
    2650,
    2645,
    2625,
    2638,
    2621,
    2666,
    2667,
    2648,
    2661,
    2664,
    2703,
    2753,
    2658,
    2678,
    2704,
    2714,
    2696,
    2714,
    2692,
    2722,
    2722,
    2735,
    2695,
    2703,
    2684,
    2724,
    2675,
    2669,
    2635,
    2624,
    2666,
    2683,
    2664,
    2631,
    2662,
    2666,
    2699,
    2712,
    2696,
    2758,
    2706,
    2725,
    2738,
    2646,
    2749,
    2772,
    2714,
    2703,
    2766,
    2692,
    2702,
    2653,
    2769,
    2654,
    2671
   ],
   "WindowCenter": [
    758.0,
    757.0,
    756.0,
    756.0,
    756.0,
    756.0,
    755.0,
    756.0,
    756.0,
    756.0,
    756.0,
    755.0,
    756.0,
    756.0,
    756.0,
    756.0,
    756.0,
    756.0,
    755.0,
    756.0,
    756.0,
    756.0,
    756.0,
    756.0,
    756.0,
    756.0,
    756.0,
    755.0,
    754.0,
    754.0,
    754.0,
    755.0,
    756.0,
    756.0,
    756.0,
    756.0,
    756.0,
    756.0,
    756.0,
    756.0,
    755.0,
    755.0,
    755.0,
    755.0,
    754.0,
    756.0,
    757.0,
    756.0,
    755.0,
    754.0,
    754.0,
    755.0,
    755.0,
    754.0,
    753.0,
    754.0,
    753.0,
    754.0,
    755.0,
    755.0,
    755.0,
    755.0,
    755.0,
    755.0,
    755.0,
    755.0,
    754.0,
    755.0,
    755.0,
    756.0,
    756.0,
    756.0,
    755.0,
    756.0,
    756.0,
    756.0,
    755.0,
    756.0,
    754.0,
    753.0,
    753.0,
    754.0,
    754.0,
    754.0,
    756.0,
    756.0,
    755.0,
    755.0,
    755.0,
    755.0,
    756.0,
    756.0,
    756.0,
    756.0,
    756.0,
    757.0,
    756.0,
    755.0,
    755.0,
    756.0,
    756.0,
    756.0,
    756.0,
    755.0,
    755.0,
    755.0,
    756.0,
    756.0,
    755.0,
    756.0,
    755.0,
    756.0,
    756.0,
    756.0,
    756.0,
    756.0,
    756.0,
    756.0,
    755.0,
    755.0,
    756.0,
    756.0,
    755.0,
    756.0,
    755.0,
    755.0,
    755.0,
    755.0,
    756.0,
    755.0,
    755.0,
    756.0,
    756.0,
    755.0,
    754.0,
    755.0,
    755.0,
    755.0,
    755.0,
    755.0,
    756.0,
    756.0,
    756.0,
    755.0,
    754.0,
    755.0,
    755.0,
    756.0,
    755.0,
    755.0,
    756.0,
    756.0,
    757.0,
    756.0,
    756.0,
    756.0,
    756.0,
    754.0,
    754.0,
    754.0,
    754.0,
    754.0,
    753.0,
    754.0,
    754.0,
    754.0,
    755.0,
    755.0,
    755.0,
    755.0,
    753.0,
    755.0,
    755.0,
    755.0,
    755.0,
    755.0,
    755.0,
    755.0,
    755.0,
    753.0,
    753.0,
    753.0,
    754.0,
    755.0,
    753.0,
    754.0,
    754.0,
    754.0,
    754.0,
    754.0,
    753.0,
    753.0,
    753.0,
    754.0,
    755.0,
    755.0,
    754.0,
    754.0,
    754.0,
    756.0,
    755.0,
    755.0,
    755.0,
    756.0,
    756.0,
    756.0,
    756.0,
    757.0,
    756.0,
    756.0,
    756.0,
    755.0,
    754.0,
    753.0,
    753.0,
    754.0,
    755.0,
    755.0,
    754.0,
    754.0,
    754.0,
    753.0,
    754.0,
    755.0,
    755.0,
    757.0,
    756.0,
    756.0,
    756.0,
    755.0,
    756.0,
    756.0,
    756.0,
    755.0,
    756.0,
    756.0,
    754.0,
    753.0,
    753.0,
    750.0,
    750.0
   ],
   "WindowWidth": [
    1635.0,
    1632.0,
    1629.0,
    1628.0,
