{
 "AcquisitionMatrixPE": 100,
 "AcquisitionNumber": 1,
 "AcquisitionTime": "15:15:41.947500",
 "BandwidthPerPixelPhaseEncode": 18.519,
 "BaseResolution": 100,
 "BodyPartExamined": "BRAIN",
 "ConsistencyInfo": "N4_VE11C_LATEST_20160120",
 "ConversionSoftware": "dcm2niix",
 "ConversionSoftwareVersion": "v1.0.20180622 GCC4.9.2",
 "DerivedVendorReportedEchoSpacing": 0.000539986,
 "DeviceSerialNumber": "166078",
 "DwellTime": 2.1e-06,
 "EchoTime": 0.034,
 "EchoTrainLength": 100,
 "EffectiveEchoSpacing": 0.000539986,
 "FlipAngle": 90,
 "ImageOrientationPatientDICOM": [
  1,
  0,
  0,
  0,
  0.977416,
  -0.211325
 ],
 "ImageType": [
  "ORIGINAL",
  "PRIMARY",
  "M",
  "ND",
  "MOSAIC"
 ],
 "InPlanePhaseEncodingDirectionDICOM": "COL",
 "InstitutionAddress": "Street_StreetNo_Bei_Jing_District_CN_ZIP",
 "InstitutionName": "BeiJing_Normal_University",
 "InstitutionalDepartmentName": "Department",
 "MRAcquisitionType": "2D",
 "MagneticFieldStrength": 3,
 "Manufacturer": "Siemens",
 "ManufacturersModelName": "Prisma",
 "Modality": "MR",
 "MultibandAccelerationFactor": 3,
 "PartialFourier": 1,
 "PatientPosition": "HFS",
 "PercentPhaseFOV": 100,
 "PhaseEncodingDirection": "j-",
 "PhaseEncodingSteps": 100,
 "PhaseResolution": 1,
 "PixelBandwidth": 2380,
 "ProcedureStepDescription": "BNU_P2018_64CH_Zhen.ZongLei",
 "ProtocolName": "bold_100x100_s3_2x2x2_static_256",
 "PulseSequenceDetails": "%SiemensSeq%_ep2d_bold",
 "ReceiveCoilActiveElements": "HC1-7;NC1",
 "ReceiveCoilName": "HeadNeck_64",
 "ReconMatrixPE": 100,
 "RepetitionTime": 2,
 "SAR": 0.0682582,
 "ScanOptions": "FS",
 "ScanningSequence": "EP",
 "SequenceName": "_epfid2d1_100",
 "SequenceVariant": "SK",
 "SeriesDescription": "bold_100x100_s3_2x2x2_static_256",
 "SeriesNumber": 4,
 "ShimSetting": [
  -5412,
  -11519,
  -1322,
  422,
  35,
  -288,
  -292,
  -21
 ],
 "SliceThickness": 2,
 "SliceTiming": [
  1.485,
  0,
  0.99,
  0.0825,
  1.0725,
  0.165,
  1.155,
  0.2475,
  1.2375,
  0.33,
  1.32,
  0.4125,
  1.4025,
  0.5775,
  1.5675,
  0.66,
  1.6475,
  0.7425,
  1.73,
  0.825,
  1.8125,
  0.9075,
  1.895,
  0.495,
  1.485,
  0,
  0.99,
  0.0825,
  1.0725,
  0.165,
  1.155,
  0.2475,
  1.2375,
  0.33,
  1.32,
  0.4125,
  1.4025,
  0.5775,
  1.5675,
  0.66,
  1.6475,
  0.7425,
  1.73,
  0.825,
  1.8125,
  0.9075,
  1.895,
  0.495,
  1.485,
  0,
  0.99,
  0.0825,
  1.0725,
  0.165,
  1.155,
  0.2475,
  1.2375,
  0.33,
  1.32,
  0.4125,
  1.4025,
  0.5775,
  1.5675,
  0.66,
  1.6475,
  0.7425,
  1.73,
  0.825,
  1.8125,
  0.9075,
  1.895,
  0.495
 ],
 "SoftwareVersions": "syngo_MR_E11",
 "SpacingBetweenSlices": 2,
 "StationName": "AWP166078",
 "TaskName": "imagenet",
 "TotalReadoutTime": 0.0534586,
 "TxRefAmp": 216.68,
 "dcmmeta_affine": [
  [
   -2.0,
   0.0,
   0.0,
   100.67796325683594
  ],
  [
   0.0,
   1.954831838607788,
   -0.4226495921611786,
   -73.9981918334961
  ],
  [
   0.0,
   0.4226495623588562,
   1.954831838607788,
   -85.14752197265625
  ],
  [
   0.0,
   0.0,
   0.0,
   1.0
  ]
 ],
 "dcmmeta_reorient_transform": [
  [
   0.0,
   -1.0,
   0.0,
   99.0
  ],
  [
   1.0,
   0.0,
   0.0,
   0.0
  ],
  [
   0.0,
   0.0,
   1.0,
   0.0
  ],
  [
   0.0,
   0.0,
   0.0,
   1.0
  ]
 ],
 "dcmmeta_shape": [
  100,
  100,
  72,
  256
 ],
 "dcmmeta_slice_dim": 2,
 "dcmmeta_version": 0.6,
 "global": {
  "const": {
   "AcquisitionMatrix": [
    100,
    0,
    0,
    100
   ],
   "AngioFlag": "N",
   "BitsAllocated": 16,
   "BitsStored": 12,
   "BodyPartExamined": "BRAIN",
   "Columns": 900,
   "EchoNumbers": 1,
   "EchoTime": 34.0,
   "EchoTrainLength": 100,
   "FlipAngle": 90.0,
   "HighBit": 11,
   "ImageOrientationPatient": [
    1.0,
    0.0,
    0.0,
    0.0,
    0.97741589648343,
    -0.2113247862923
   ],
   "ImagePositionPatient": [
    -900.67796611786,
    -901.46287151709,
    125.75461692821
   ],
   "ImageType": [
    "ORIGINAL",
    "PRIMARY",
    "M",
    "ND",
    "MOSAIC"
   ],
   "ImagedNucleus": "1H",
   "ImagingFrequency": 123.257801,
   "InPlanePhaseEncodingDirection": "COL",
   "MRAcquisitionType": "2D",
   "MagneticFieldStrength": 3.0,
   "Manufacturer": "SIEMENS",
   "ManufacturerModelName": "Prisma",
   "Modality": "MR",
   "NumberOfAverages": 1.0,
   "NumberOfPhaseEncodingSteps": 100,
   "PercentPhaseFieldOfView": 100.0,
   "PercentSampling": 100.0,
   "PerformedProcedureStepStartTime": "145722.228000",
   "PhotometricInterpretation": "MONOCHROME2",
   "PixelBandwidth": 2380.0,
   "PixelRepresentation": 0,
   "PixelSpacing": [
    2.0,
    2.0
   ],
   "ProtocolName": "bold_100x100_s3_2x2x2_static_256",
   "RepetitionTime": 2000.0,
   "Rows": 900,
   "SAR": 0.06825822162355,
   "SamplesPerPixel": 1,
   "ScanOptions": "FS",
   "ScanningSequence": "EP",
   "SequenceName": "*epfid2d1_100",
   "SequenceVariant": "SK",
   "SeriesDescription": "bold_100x100_s3_2x2x2_static_256",
   "SeriesNumber": 4,
   "SeriesTime": "151544.848000",
   "SliceLocation": -67.58688703198,
   "SliceThickness": 2.0,
   "SmallestImagePixelValue": 0,
   "SoftwareVersions": "syngo MR E11",
   "SpacingBetweenSlices": 2.0000000467956,
   "SpecificCharacterSet": "ISO_IR 100",
   "StudyID": "1",
   "StudyTime": "145722.150000",
   "TransmitCoilName": "Body",
   "VariableFlipAngleFlag": "N",
   "WindowCenterWidthExplanation": "Algo1",
   "dBdt": 0.0
  },
  "slices": {}
 },
 "time": {
  "samples": {
   "AcquisitionNumber": [
    1,
    2,
    3,
    4,
    5,
    6,
    7,
    8,
    9,
    10,
    11,
    12,
    13,
    14,
    15,
    16,
    17,
    18,
    19,
    20,
    21,
    22,
    23,
    24,
    25,
    26,
    27,
    28,
    29,
    30,
    31,
    32,
    33,
    34,
    35,
    36,
    37,
    38,
    39,
    40,
    41,
    42,
    43,
    44,
    45,
    46,
    47,
    48,
    49,
    50,
    51,
    52,
    53,
    54,
    55,
    56,
    57,
    58,
    59,
    60,
    61,
    62,
    63,
    64,
    65,
    66,
    67,
    68,
    69,
    70,
    71,
    72,
    73,
    74,
    75,
    76,
    77,
    78,
    79,
    80,
    81,
    82,
    83,
    84,
    85,
    86,
    87,
    88,
    89,
    90,
    91,
    92,
    93,
    94,
    95,
    96,
    97,
    98,
    99,
    100,
    101,
    102,
    103,
    104,
    105,
    106,
    107,
    108,
    109,
    110,
    111,
    112,
    113,
    114,
    115,
    116,
    117,
    118,
    119,
    120,
    121,
    122,
    123,
    124,
    125,
    126,
    127,
    128,
    129,
    130,
    131,
    132,
    133,
    134,
    135,
    136,
    137,
    138,
    139,
    140,
    141,
    142,
    143,
    144,
    145,
    146,
    147,
    148,
    149,
    150,
    151,
    152,
    153,
    154,
    155,
    156,
    157,
    158,
    159,
    160,
    161,
    162,
    163,
    164,
    165,
    166,
    167,
    168,
    169,
    170,
    171,
    172,
    173,
    174,
    175,
    176,
    177,
    178,
    179,
    180,
    181,
    182,
    183,
    184,
    185,
    186,
    187,
    188,
    189,
    190,
    191,
    192,
    193,
    194,
    195,
    196,
    197,
    198,
    199,
    200,
    201,
    202,
    203,
    204,
    205,
    206,
    207,
    208,
    209,
    210,
    211,
    212,
    213,
    214,
    215,
    216,
    217,
    218,
    219,
    220,
    221,
    222,
    223,
    224,
    225,
    226,
    227,
    228,
    229,
    230,
    231,
    232,
    233,
    234,
    235,
    236,
    237,
    238,
    239,
    240,
    241,
    242,
    243,
    244,
    245,
    246,
    247,
    248,
    249,
    250,
    251,
    252,
    253,
    254,
    255,
    256
   ],
   "AcquisitionTime": [
    "151541.947500",
    "151543.947500",
    "151545.947500",
    "151547.947500",
    "151549.947500",
    "151551.947500",
    "151553.947500",
    "151555.947500",
    "151557.947500",
    "151559.947500",
    "151601.947500",
    "151603.947500",
    "151605.947500",
    "151607.947500",
    "151609.947500",
    "151611.947500",
    "151613.947500",
    "151615.947500",
    "151617.947500",
    "151619.947500",
    "151621.947500",
    "151623.947500",
    "151625.947500",
    "151627.947500",
    "151629.947500",
    "151631.947500",
    "151633.947500",
    "151635.947500",
    "151637.947500",
    "151639.947500",
    "151641.947500",
    "151643.947500",
    "151645.947500",
    "151647.947500",
    "151649.947500",
    "151651.947500",
    "151653.947500",
    "151655.947500",
    "151657.947500",
    "151659.947500",
    "151701.947500",
    "151703.947500",
    "151705.947500",
    "151707.947500",
    "151709.947500",
    "151711.947500",
    "151713.947500",
    "151715.947500",
    "151717.947500",
    "151719.947500",
    "151721.947500",
    "151723.947500",
    "151725.947500",
    "151727.947500",
    "151729.947500",
    "151731.947500",
    "151733.947500",
    "151735.947500",
    "151737.947500",
    "151739.947500",
    "151741.947500",
    "151743.947500",
    "151745.947500",
    "151747.947500",
    "151749.947500",
    "151751.947500",
    "151753.947500",
    "151755.947500",
    "151757.947500",
    "151759.947500",
    "151801.947500",
    "151803.947500",
    "151805.947500",
    "151807.947500",
    "151809.947500",
    "151811.947500",
    "151813.947500",
    "151815.947500",
    "151817.947500",
    "151819.947500",
    "151821.947500",
    "151823.947500",
    "151825.947500",
    "151827.947500",
    "151829.947500",
    "151831.947500",
    "151833.947500",
    "151835.947500",
    "151837.947500",
    "151839.947500",
    "151841.947500",
    "151843.947500",
    "151845.947500",
    "151847.947500",
    "151849.947500",
    "151851.947500",
    "151853.947500",
    "151855.947500",
    "151857.947500",
    "151859.947500",
    "151901.947500",
    "151903.947500",
    "151905.947500",
    "151907.947500",
    "151909.947500",
    "151911.947500",
    "151913.947500",
    "151915.947500",
    "151917.947500",
    "151919.947500",
    "151921.947500",
    "151923.947500",
    "151925.947500",
    "151927.947500",
    "151929.947500",
    "151931.947500",
    "151933.947500",
    "151935.947500",
    "151937.947500",
    "151939.947500",
    "151941.947500",
    "151943.947500",
    "151945.947500",
    "151947.947500",
    "151949.947500",
    "151951.947500",
    "151953.947500",
    "151955.947500",
    "151957.947500",
    "151959.947500",
    "152001.947500",
    "152003.947500",
    "152005.947500",
    "152007.947500",
    "152009.947500",
    "152011.947500",
    "152013.947500",
    "152015.947500",
    "152017.947500",
    "152019.947500",
    "152021.947500",
    "152023.947500",
    "152025.947500",
    "152027.947500",
    "152029.947500",
    "152031.947500",
    "152033.947500",
    "152035.947500",
    "152037.947500",
    "152039.947500",
    "152041.947500",
    "152043.947500",
    "152045.947500",
    "152047.947500",
    "152049.947500",
    "152051.947500",
    "152053.947500",
    "152055.947500",
    "152057.947500",
    "152059.947500",
    "152101.947500",
    "152103.947500",
    "152105.947500",
    "152107.947500",
    "152109.947500",
    "152111.947500",
    "152113.947500",
    "152115.947500",
    "152117.947500",
    "152119.947500",
    "152121.947500",
    "152123.947500",
    "152125.947500",
    "152127.947500",
    "152129.947500",
    "152131.947500",
    "152133.947500",
    "152135.947500",
    "152137.947500",
    "152139.947500",
    "152141.947500",
    "152143.947500",
    "152145.947500",
    "152147.947500",
    "152149.947500",
    "152151.947500",
    "152153.947500",
    "152155.947500",
    "152157.947500",
    "152159.947500",
    "152201.947500",
    "152203.947500",
    "152205.947500",
    "152207.947500",
    "152209.947500",
    "152211.947500",
    "152213.947500",
    "152215.947500",
    "152217.947500",
    "152219.947500",
    "152221.947500",
    "152223.947500",
    "152225.947500",
    "152227.947500",
    "152229.947500",
    "152231.947500",
    "152233.947500",
    "152235.947500",
    "152237.947500",
    "152239.947500",
    "152241.947500",
    "152243.947500",
    "152245.947500",
    "152247.947500",
    "152249.947500",
    "152251.947500",
    "152253.947500",
    "152255.947500",
    "152257.947500",
    "152259.947500",
    "152301.947500",
    "152303.947500",
    "152305.947500",
    "152307.947500",
    "152309.947500",
    "152311.947500",
    "152313.947500",
    "152315.947500",
    "152317.947500",
    "152319.947500",
    "152321.947500",
    "152323.947500",
    "152325.947500",
    "152327.947500",
    "152329.947500",
    "152331.947500",
    "152333.947500",
    "152335.947500",
    "152337.947500",
    "152339.947500",
    "152341.947500",
    "152343.947500",
    "152345.947500",
    "152347.947500",
    "152349.947500",
    "152351.947500",
    "152353.947500",
    "152355.947500",
    "152357.947500",
    "152359.947500",
    "152401.947500",
    "152403.947500",
    "152405.947500",
    "152407.947500",
    "152409.947500",
    "152411.947500"
   ],
   "ContentTime": [
    "151544.851000",
    "151546.331000",
    "151548.332000",
    "151550.331000",
    "151552.331000",
    "151554.331000",
    "151556.331000",
    "151558.332000",
    "151600.331000",
    "151602.331000",
    "151604.331000",
    "151606.332000",
    "151608.332000",
    "151610.331000",
    "151612.332000",
    "151614.332000",
    "151616.332000",
    "151618.332000",
    "151620.331000",
    "151622.332000",
    "151624.332000",
    "151626.831000",
    "151628.332000",
    "151630.331000",
    "151632.332000",
    "151634.331000",
    "151636.331000",
    "151638.331000",
    "151640.331000",
    "151642.331000",
    "151644.332000",
    "151646.332000",
    "151648.331000",
    "151650.331000",
    "151652.332000",
    "151654.331000",
    "151656.331000",
    "151658.331000",
    "151700.331000",
    "151702.332000",
    "151704.331000",
    "151706.332000",
    "151708.332000",
    "151710.331000",
    "151712.332000",
    "151714.332000",
    "151716.333000",
    "151718.332000",
    "151720.332000",
    "151722.331000",
    "151724.332000",
    "151726.332000",
    "151728.331000",
    "151730.331000",
    "151732.331000",
    "151734.332000",
    "151736.332000",
    "151738.331000",
    "151740.332000",
    "151742.332000",
    "151744.331000",
    "151746.331000",
    "151748.332000",
    "151750.832000",
    "151752.831000",
    "151754.331000",
    "151756.331000",
    "151758.331000",
    "151800.331000",
    "151802.332000",
    "151804.332000",
    "151806.331000",
    "151808.333000",
    "151810.331000",
    "151812.331000",
    "151814.332000",
    "151816.332000",
    "151818.331000",
    "151820.331000",
    "151822.332000",
    "151824.331000",
    "151826.832000",
    "151828.331000",
    "151830.331000",
    "151832.331000",
    "151834.332000",
    "151836.332000",
    "151838.331000",
    "151840.332000",
    "151842.332000",
    "151844.331000",
    "151846.331000",
    "151848.331000",
    "151850.832000",
    "151852.331000",
    "151854.332000",
    "151856.332000",
    "151858.331000",
    "151900.332000",
    "151902.331000",
    "151904.332000",
    "151906.331000",
    "151908.331000",
    "151910.331000",
    "151912.331000",
    "151914.331000",
    "151916.332000",
    "151918.833000",
    "151920.332000",
    "151922.331000",
    "151924.332000",
    "151926.332000",
    "151928.332000",
    "151930.332000",
    "151932.332000",
    "151934.332000",
    "151936.332000",
    "151938.331000",
    "151940.332000",
    "151942.331000",
    "151944.332000",
    "151946.332000",
    "151948.331000",
    "151950.332000",
    "151952.331000",
    "151954.332000",
    "151956.331000",
    "151958.332000",
    "152000.331000",
    "152002.832000",
    "152004.331000",
    "152006.331000",
    "152008.332000",
    "152010.332000",
    "152012.331000",
    "152014.332000",
    "152016.331000",
    "152018.331000",
    "152020.331000",
    "152022.332000",
    "152024.332000",
    "152026.332000",
    "152028.333000",
    "152030.331000",
    "152032.331000",
    "152034.332000",
    "152036.332000",
    "152038.332000",
    "152040.331000",
    "152042.332000",
    "152044.331000",
    "152046.333000",
    "152048.332000",
    "152050.332000",
    "152052.332000",
    "152054.331000",
    "152056.332000",
    "152058.331000",
    "152100.332000",
    "152102.331000",
    "152104.332000",
    "152106.331000",
    "152108.331000",
    "152110.332000",
    "152112.331000",
    "152114.345000",
    "152116.332000",
    "152118.332000",
    "152120.332000",
    "152122.332000",
    "152124.331000",
    "152126.332000",
    "152128.332000",
    "152130.331000",
    "152132.332000",
    "152134.331000",
    "152136.331000",
    "152138.332000",
    "152140.331000",
    "152142.332000",
    "152144.332000",
    "152146.331000",
    "152148.331000",
    "152150.331000",
    "152152.332000",
    "152154.331000",
    "152156.333000",
    "152158.332000",
    "152200.331000",
    "152202.332000",
    "152204.331000",
    "152206.331000",
    "152208.332000",
    "152210.331000",
    "152212.331000",
    "152214.331000",
    "152216.332000",
    "152218.332000",
    "152220.332000",
    "152222.332000",
    "152224.332000",
    "152226.332000",
    "152228.331000",
    "152230.332000",
    "152232.331000",
    "152234.331000",
    "152236.331000",
    "152238.832000",
    "152240.331000",
    "152242.332000",
    "152244.332000",
    "152246.331000",
    "152248.333000",
    "152250.332000",
    "152252.331000",
    "152254.332000",
    "152256.331000",
    "152258.331000",
    "152300.331000",
    "152302.332000",
    "152304.331000",
    "152306.333000",
    "152308.331000",
    "152310.332000",
    "152312.331000",
    "152314.332000",
    "152316.332000",
    "152318.331000",
    "152320.332000",
    "152322.332000",
    "152324.332000",
    "152326.332000",
    "152328.331000",
    "152330.331000",
    "152332.331000",
    "152334.331000",
    "152336.331000",
    "152338.332000",
    "152340.332000",
    "152342.332000",
    "152344.331000",
    "152346.332000",
    "152348.832000",
    "152350.332000",
    "152352.331000",
    "152354.332000",
    "152356.332000",
    "152358.333000",
    "152400.832000",
    "152402.332000",
    "152404.332000",
    "152406.332000",
    "152408.332000",
    "152410.332000",
    "152412.332000",
    "152414.224000"
   ],
   "InstanceCreationTime": [
    "151544.851000",
    "151546.331000",
    "151548.332000",
    "151550.331000",
    "151552.331000",
    "151554.331000",
    "151556.331000",
    "151558.332000",
    "151600.331000",
    "151602.331000",
    "151604.331000",
    "151606.332000",
    "151608.332000",
    "151610.331000",
    "151612.332000",
    "151614.332000",
    "151616.332000",
    "151618.332000",
    "151620.331000",
    "151622.332000",
    "151624.332000",
    "151626.831000",
    "151628.332000",
    "151630.331000",
    "151632.332000",
    "151634.331000",
    "151636.331000",
    "151638.331000",
    "151640.331000",
    "151642.331000",
    "151644.332000",
    "151646.332000",
    "151648.331000",
    "151650.331000",
    "151652.332000",
    "151654.331000",
    "151656.331000",
    "151658.331000",
    "151700.331000",
    "151702.332000",
    "151704.331000",
    "151706.332000",
    "151708.332000",
    "151710.331000",
    "151712.332000",
    "151714.332000",
    "151716.333000",
    "151718.332000",
    "151720.332000",
    "151722.331000",
    "151724.332000",
    "151726.332000",
    "151728.331000",
    "151730.331000",
    "151732.331000",
    "151734.332000",
    "151736.332000",
    "151738.331000",
    "151740.332000",
    "151742.332000",
    "151744.331000",
    "151746.331000",
    "151748.332000",
    "151750.832000",
    "151752.831000",
    "151754.331000",
    "151756.331000",
    "151758.331000",
    "151800.331000",
    "151802.332000",
    "151804.332000",
    "151806.331000",
    "151808.333000",
    "151810.331000",
    "151812.331000",
    "151814.332000",
    "151816.332000",
    "151818.331000",
    "151820.331000",
    "151822.332000",
    "151824.331000",
    "151826.832000",
    "151828.331000",
    "151830.331000",
    "151832.331000",
    "151834.332000",
    "151836.332000",
    "151838.331000",
    "151840.332000",
    "151842.332000",
    "151844.331000",
    "151846.331000",
    "151848.331000",
    "151850.832000",
    "151852.331000",
    "151854.332000",
    "151856.332000",
    "151858.331000",
    "151900.332000",
    "151902.331000",
    "151904.332000",
    "151906.331000",
    "151908.331000",
    "151910.331000",
    "151912.331000",
    "151914.331000",
    "151916.332000",
    "151918.833000",
    "151920.332000",
    "151922.331000",
    "151924.332000",
    "151926.332000",
    "151928.332000",
    "151930.332000",
    "151932.332000",
    "151934.332000",
    "151936.332000",
    "151938.331000",
    "151940.332000",
    "151942.331000",
    "151944.332000",
    "151946.332000",
    "151948.331000",
    "151950.332000",
    "151952.331000",
    "151954.332000",
    "151956.331000",
    "151958.332000",
    "152000.331000",
    "152002.832000",
    "152004.331000",
    "152006.331000",
    "152008.332000",
    "152010.332000",
    "152012.331000",
    "152014.332000",
    "152016.331000",
    "152018.331000",
    "152020.331000",
    "152022.332000",
    "152024.332000",
    "152026.332000",
    "152028.333000",
    "152030.331000",
    "152032.331000",
    "152034.332000",
    "152036.332000",
    "152038.332000",
    "152040.331000",
    "152042.332000",
    "152044.331000",
    "152046.333000",
    "152048.332000",
    "152050.332000",
    "152052.332000",
    "152054.331000",
    "152056.332000",
    "152058.331000",
    "152100.332000",
    "152102.331000",
    "152104.332000",
    "152106.331000",
    "152108.331000",
    "152110.332000",
    "152112.331000",
    "152114.345000",
    "152116.332000",
    "152118.332000",
    "152120.332000",
    "152122.332000",
    "152124.331000",
    "152126.332000",
    "152128.332000",
    "152130.331000",
    "152132.332000",
    "152134.331000",
    "152136.331000",
    "152138.332000",
    "152140.331000",
    "152142.332000",
    "152144.332000",
    "152146.331000",
    "152148.331000",
    "152150.331000",
    "152152.332000",
    "152154.331000",
    "152156.333000",
    "152158.332000",
    "152200.331000",
    "152202.332000",
    "152204.331000",
    "152206.331000",
    "152208.332000",
    "152210.331000",
    "152212.331000",
    "152214.331000",
    "152216.332000",
    "152218.332000",
    "152220.332000",
    "152222.332000",
    "152224.332000",
    "152226.332000",
    "152228.331000",
    "152230.332000",
    "152232.331000",
    "152234.331000",
    "152236.331000",
    "152238.832000",
    "152240.331000",
    "152242.332000",
    "152244.332000",
    "152246.331000",
    "152248.333000",
    "152250.332000",
    "152252.331000",
    "152254.332000",
    "152256.331000",
    "152258.331000",
    "152300.331000",
    "152302.332000",
    "152304.331000",
    "152306.333000",
    "152308.331000",
    "152310.332000",
    "152312.331000",
    "152314.332000",
    "152316.332000",
    "152318.331000",
    "152320.332000",
    "152322.332000",
    "152324.332000",
    "152326.332000",
    "152328.331000",
    "152330.331000",
    "152332.331000",
    "152334.331000",
    "152336.331000",
    "152338.332000",
    "152340.332000",
    "152342.332000",
    "152344.331000",
    "152346.332000",
    "152348.832000",
    "152350.332000",
    "152352.331000",
    "152354.332000",
    "152356.332000",
    "152358.333000",
    "152400.832000",
    "152402.332000",
    "152404.332000",
    "152406.332000",
    "152408.332000",
    "152410.332000",
    "152412.332000",
    "152414.224000"
   ],
   "InstanceNumber": [
    1,
    2,
    3,
    4,
    5,
    6,
    7,
    8,
    9,
    10,
    11,
    12,
    13,
    14,
    15,
    16,
    17,
    18,
    19,
    20,
    21,
    22,
    23,
    24,
    25,
    26,
    27,
    28,
    29,
    30,
    31,
    32,
    33,
    34,
    35,
    36,
    37,
    38,
    39,
    40,
    41,
    42,
    43,
    44,
    45,
    46,
    47,
    48,
    49,
    50,
    51,
    52,
    53,
    54,
    55,
    56,
    57,
    58,
    59,
    60,
    61,
    62,
    63,
    64,
    65,
    66,
    67,
    68,
    69,
    70,
    71,
    72,
    73,
    74,
    75,
    76,
    77,
    78,
    79,
    80,
    81,
    82,
    83,
    84,
    85,
    86,
    87,
    88,
    89,
    90,
    91,
    92,
    93,
    94,
    95,
    96,
    97,
    98,
    99,
    100,
    101,
    102,
    103,
    104,
    105,
    106,
    107,
    108,
    109,
    110,
    111,
    112,
    113,
    114,
    115,
    116,
    117,
    118,
    119,
    120,
    121,
    122,
    123,
    124,
    125,
    126,
    127,
    128,
    129,
    130,
    131,
    132,
    133,
    134,
    135,
    136,
    137,
    138,
    139,
    140,
    141,
    142,
    143,
    144,
    145,
    146,
    147,
    148,
    149,
    150,
    151,
    152,
    153,
    154,
    155,
    156,
    157,
    158,
    159,
    160,
    161,
    162,
    163,
    164,
    165,
    166,
    167,
    168,
    169,
    170,
    171,
    172,
    173,
    174,
    175,
    176,
    177,
    178,
    179,
    180,
    181,
    182,
    183,
    184,
    185,
    186,
    187,
    188,
    189,
    190,
    191,
    192,
    193,
    194,
    195,
    196,
    197,
    198,
    199,
    200,
    201,
    202,
    203,
    204,
    205,
    206,
    207,
    208,
    209,
    210,
    211,
    212,
    213,
    214,
    215,
    216,
    217,
    218,
    219,
    220,
    221,
    222,
    223,
    224,
    225,
    226,
    227,
    228,
    229,
    230,
    231,
    232,
    233,
    234,
    235,
    236,
    237,
    238,
    239,
    240,
    241,
    242,
    243,
    244,
    245,
    246,
    247,
    248,
    249,
    250,
    251,
    252,
    253,
    254,
    255,
    256
   ],
   "LargestImagePixelValue": [
    2404,
    2219,
    2214,
    2228,
    2273,
    2238,
    2215,
    2290,
    2218,
    2240,
    2224,
    2218,
    2252,
    2241,
    2215,
    2228,
    2205,
    2239,
    2228,
    2234,
    2237,
    2230,
    2196,
    2213,
    2236,
    2221,
    2210,
    2194,
    2185,
    2214,
    2218,
    2184,
    2207,
    2198,
    2207,
    2215,
    2204,
    2190,
    2216,
    2193,
    2197,
    2201,
    2302,
    2236,
    2213,
    2227,
    2211,
    2206,
    2184,
    2207,
    2225,
    2267,
    2223,
    2223,
    2275,
    2208,
    2185,
    2267,
    2220,
    2258,
    2196,
    2202,
    2205,
    2175,
    2216,
    2220,
    2231,
    2221,
    2225,
    2235,
    2230,
    2228,
    2230,
    2219,
    2210,
    2240,
    2221,
    2180,
    2216,
    2241,
    2239,
    2335,
    2208,
    2281,
    2215,
    2225,
    2199,
    2266,
    2189,
    2180,
    2196,
    2201,
    2215,
    2196,
    2188,
    2197,
    2293,
    2269,
    2233,
    2203,
    2205,
    2218,
    2198,
    2183,
    2191,
    2196,
    2190,
    2196,
    2201,
    2299,
    2203,
    2191,
    2201,
    2232,
    2293,
    2208,
    2239,
    2207,
    2211,
    2203,
    2184,
    2330,
    2246,
    2207,
    2192,
    2177,
    2179,
    2197,
    2213,
    2195,
    2185,
    2203,
    2198,
    2193,
    2198,
    2321,
    2210,
    2231,
    2241,
    2217,
    2204,
    2193,
    2201,
    2202,
    2206,
    2217,
    2225,
    2342,
    2235,
    2212,
    2202,
    2205,
    2203,
    2201,
    2236,
    2213,
    2211,
    2210,
    2247,
    2291,
    2229,
    2199,
    2210,
    2219,
    2270,
    2218,
    2200,
    2217,
    2231,
    2216,
    2215,
    2212,
    2283,
    2249,
    2216,
    2286,
    2244,
    2232,
    2231,
    2229,
    2228,
    2229,
    2231,
    2320,
    2246,
    2250,
    2237,
    2230,
    2301,
    2210,
    2211,
    2215,
    2203,
    2216,
    2237,
    2215,
    2218,
    2217,
    2244,
    2259,
    2292,
    2221,
    2229,
    2273,
    2219,
    2221,
    2248,
    2233,
    2232,
    2314,
    2244,
    2231,
    2240,
    2258,
    2219,
    2243,
    2237,
    2255,
    2231,
    2239,
    2268,
    2236,
    2262,
    2233,
    2223,
    2270,
    2250,
    2224,
    2224,
    2234,
    2233,
    2223,
    2260,
    2236,
    2233,
    2243,
    2317,
    2245,
    2239,
    2258,
    2232,
    2251,
    2226,
    2235,
    2233,
    2243,
    2248,
    2286,
    2269,
    2257,
    2242,
    2245,
    2277,
    2235,
    2243,
    2304
   ],
   "WindowCenter": [
    711.0,
    707.0,
    707.0,
    707.0,
    708.0,
    706.0,
    706.0,
    707.0,
    705.0,
    706.0,
    707.0,
    707.0,
    708.0,
    707.0,
    707.0,
    707.0,
    707.0,
    708.0,
    707.0,
    707.0,
    707.0,
    706.0,
    706.0,
    707.0,
    707.0,
    706.0,
    706.0,
    706.0,
    705.0,
    706.0,
    706.0,
    705.0,
    705.0,
    705.0,
    705.0,
    705.0,
    705.0,
    705.0,
    706.0,
    705.0,
    706.0,
    706.0,
    708.0,
    707.0,
    707.0,
    706.0,
    706.0,
    705.0,
    705.0,
    707.0,
    708.0,
    708.0,
    706.0,
    706.0,
    706.0,
    704.0,
    704.0,
    706.0,
    705.0,
    706.0,
    705.0,
    705.0,
    705.0,
    705.0,
    705.0,
    705.0,
    706.0,
    705.0,
    706.0,
    706.0,
    707.0,
    706.0,
    707.0,
    706.0,
    706.0,
    706.0,
    706.0,
    706.0,
    707.0,
    707.0,
    707.0,
    707.0,
    706.0,
    707.0,
    706.0,
    706.0,
    706.0,
    707.0,
    705.0,
    706.0,
    706.0,
    706.0,
    705.0,
    705.0,
    705.0,
    707.0,
    710.0,
    708.0,
    707.0,
    706.0,
    705.0,
    706.0,
    705.0,
    705.0,
    705.0,
    705.0,
    705.0,
    706.0,
    706.0,
    707.0,
    705.0,
    706.0,
    706.0,
    707.0,
    707.0,
    705.0,
    705.0,
    705.0,
    705.0,
    705.0,
    704.0,
    708.0,
    707.0,
    706.0,
    706.0,
