{
 "AcquisitionMatrixPE": 100,
 "AcquisitionNumber": 1,
 "AcquisitionTime": "12:38:49.805000",
 "BandwidthPerPixelPhaseEncode": 18.519,
 "BaseResolution": 100,
 "BodyPartExamined": "BRAIN",
 "ConsistencyInfo": "N4_VE11C_LATEST_20160120",
 "ConversionSoftware": "dcm2niix",
 "ConversionSoftwareVersion": "v1.0.20180622 GCC4.9.2",
 "DerivedVendorReportedEchoSpacing": 0.000539986,
 "DeviceSerialNumber": "166078",
 "DwellTime": 2.1e-06,
 "EchoTime": 0.034,
 "EchoTrainLength": 100,
 "EffectiveEchoSpacing": 0.000539986,
 "FlipAngle": 90,
 "ImageOrientationPatientDICOM": [
  1,
  0,
  0,
  0,
  0.971961,
  -0.235142
 ],
 "ImageType": [
  "ORIGINAL",
  "PRIMARY",
  "M",
  "ND",
  "MOSAIC"
 ],
 "InPlanePhaseEncodingDirectionDICOM": "COL",
 "InstitutionAddress": "Street_StreetNo_Bei_Jing_District_CN_ZIP",
 "InstitutionName": "BeiJing_Normal_University",
 "InstitutionalDepartmentName": "Department",
 "MRAcquisitionType": "2D",
 "MagneticFieldStrength": 3,
 "Manufacturer": "Siemens",
 "ManufacturersModelName": "Prisma",
 "Modality": "MR",
 "MultibandAccelerationFactor": 3,
 "PartialFourier": 1,
 "PatientPosition": "HFS",
 "PercentPhaseFOV": 100,
 "PhaseEncodingDirection": "j-",
 "PhaseEncodingSteps": 100,
 "PhaseResolution": 1,
 "PixelBandwidth": 2380,
 "ProcedureStepDescription": "BNU_P2018_64CH_Zhen.ZongLei",
 "ProtocolName": "bold_100x100_s3_2x2x2_static_256",
 "PulseSequenceDetails": "%SiemensSeq%_ep2d_bold",
 "ReceiveCoilActiveElements": "HC1-7;NC1",
 "ReceiveCoilName": "HeadNeck_64",
 "ReconMatrixPE": 100,
 "RepetitionTime": 2,
 "SAR": 0.0660291,
 "ScanOptions": "FS",
 "ScanningSequence": "EP",
 "SequenceName": "_epfid2d1_100",
 "SequenceVariant": "SK",
 "SeriesDescription": "bold_100x100_s3_2x2x2_static_256",
 "SeriesNumber": 14,
 "ShimSetting": [
  -5475,
  -11487,
  -1257,
  439,
  -30,
  -147,
  -145,
  86
 ],
 "SliceThickness": 2,
 "SliceTiming": [
  1.485,
  0,
  0.99,
  0.0825,
  1.0725,
  0.165,
  1.155,
  0.2475,
  1.2375,
  0.33,
  1.32,
  0.4125,
  1.4025,
  0.5775,
  1.5675,
  0.66,
  1.65,
  0.7425,
  1.7325,
  0.825,
  1.815,
  0.9075,
  1.8975,
  0.495,
  1.485,
  0,
  0.99,
  0.0825,
  1.0725,
  0.165,
  1.155,
  0.2475,
  1.2375,
  0.33,
  1.32,
  0.4125,
  1.4025,
  0.5775,
  1.5675,
  0.66,
  1.65,
  0.7425,
  1.7325,
  0.825,
  1.815,
  0.9075,
  1.8975,
  0.495,
  1.485,
  0,
  0.99,
  0.0825,
  1.0725,
  0.165,
  1.155,
  0.2475,
  1.2375,
  0.33,
  1.32,
  0.4125,
  1.4025,
  0.5775,
  1.5675,
  0.66,
  1.65,
  0.7425,
  1.7325,
  0.825,
  1.815,
  0.9075,
  1.8975,
  0.495
 ],
 "SoftwareVersions": "syngo_MR_E11",
 "SpacingBetweenSlices": 2,
 "StationName": "AWP166078",
 "TaskName": "imagenet",
 "TotalReadoutTime": 0.0534586,
 "TxRefAmp": 208.985,
 "dcmmeta_affine": [
  [
   -2.0,
   0.0,
   0.0,
   100.67469787597656
  ],
  [
   0.0,
   1.9439220428466797,
   -0.47028419375419617,
   -78.27275085449219
  ],
  [
   0.0,
   0.47028419375419617,
   1.9439219236373901,
   -86.50135040283203
  ],
  [
   0.0,
   0.0,
   0.0,
   1.0
  ]
 ],
 "dcmmeta_reorient_transform": [
  [
   0.0,
   -1.0,
   0.0,
   99.0
  ],
  [
   1.0,
   0.0,
   0.0,
   0.0
  ],
  [
   0.0,
   0.0,
   1.0,
   0.0
  ],
  [
   0.0,
   0.0,
   0.0,
   1.0
  ]
 ],
 "dcmmeta_shape": [
  100,
  100,
  72,
  256
 ],
 "dcmmeta_slice_dim": 2,
 "dcmmeta_version": 0.6,
 "global": {
  "const": {
   "AcquisitionMatrix": [
    100,
    0,
    0,
    100
   ],
   "AngioFlag": "N",
   "BitsAllocated": 16,
   "BitsStored": 12,
   "BodyPartExamined": "BRAIN",
   "Columns": 900,
   "EchoNumbers": 1,
   "EchoTime": 34.0,
   "EchoTrainLength": 100,
   "FlipAngle": 90.0,
   "HighBit": 11,
   "ImageOrientationPatient": [
    1.0,
    0.0,
    0.0,
    0.0,
    0.97196100271939,
    -0.2351421042534
   ],
   "ImagePositionPatient": [
    -900.67469877005,
    -891.7443297851,
    148.17046966425
   ],
   "ImageType": [
    "ORIGINAL",
    "PRIMARY",
    "M",
    "ND",
    "MOSAIC"
   ],
   "ImagedNucleus": "1H",
   "ImagingFrequency": 123.257782,
   "InPlanePhaseEncodingDirection": "COL",
   "MRAcquisitionType": "2D",
   "MagneticFieldStrength": 3.0,
   "Manufacturer": "SIEMENS",
   "ManufacturerModelName": "Prisma",
   "Modality": "MR",
   "NumberOfAverages": 1.0,
   "NumberOfPhaseEncodingSteps": 100,
   "PercentPhaseFieldOfView": 100.0,
   "PercentSampling": 100.0,
   "PerformedProcedureStepStartTime": "110459.350000",
   "PhotometricInterpretation": "MONOCHROME2",
   "PixelBandwidth": 2380.0,
   "PixelRepresentation": 0,
   "PixelSpacing": [
    2.0,
    2.0
   ],
   "ProtocolName": "bold_100x100_s3_2x2x2_static_256",
   "RepetitionTime": 2000.0,
   "Rows": 900,
   "SAR": 0.06602914037193,
   "SamplesPerPixel": 1,
   "ScanOptions": "FS",
   "ScanningSequence": "EP",
   "SequenceName": "*epfid2d1_100",
   "SequenceVariant": "SK",
   "SeriesDescription": "bold_100x100_s3_2x2x2_static_256",
   "SeriesNumber": 14,
   "SeriesTime": "123852.026000",
   "SliceLocation": -65.670719893447,
   "SliceThickness": 2.0,
   "SmallestImagePixelValue": 0,
   "SoftwareVersions": "syngo MR E11",
   "SpacingBetweenSlices": 1.9999999639342,
   "SpecificCharacterSet": "ISO_IR 100",
   "StudyID": "1",
   "StudyTime": "110459.231000",
   "TransmitCoilName": "Body",
   "VariableFlipAngleFlag": "N",
   "WindowCenterWidthExplanation": "Algo1",
   "dBdt": 0.0
  },
  "slices": {}
 },
 "time": {
  "samples": {
   "AcquisitionNumber": [
    1,
    2,
    3,
    4,
    5,
    6,
    7,
    8,
    9,
    10,
    11,
    12,
    13,
    14,
    15,
    16,
    17,
    18,
    19,
    20,
    21,
    22,
    23,
    24,
    25,
    26,
    27,
    28,
    29,
    30,
    31,
    32,
    33,
    34,
    35,
    36,
    37,
    38,
    39,
    40,
    41,
    42,
    43,
    44,
    45,
    46,
    47,
    48,
    49,
    50,
    51,
    52,
    53,
    54,
    55,
    56,
    57,
    58,
    59,
    60,
    61,
    62,
    63,
    64,
    65,
    66,
    67,
    68,
    69,
    70,
    71,
    72,
    73,
    74,
    75,
    76,
    77,
    78,
    79,
    80,
    81,
    82,
    83,
    84,
    85,
    86,
    87,
    88,
    89,
    90,
    91,
    92,
    93,
    94,
    95,
    96,
    97,
    98,
    99,
    100,
    101,
    102,
    103,
    104,
    105,
    106,
    107,
    108,
    109,
    110,
    111,
    112,
    113,
    114,
    115,
    116,
    117,
    118,
    119,
    120,
    121,
    122,
    123,
    124,
    125,
    126,
    127,
    128,
    129,
    130,
    131,
    132,
    133,
    134,
    135,
    136,
    137,
    138,
    139,
    140,
    141,
    142,
    143,
    144,
    145,
    146,
    147,
    148,
    149,
    150,
    151,
    152,
    153,
    154,
    155,
    156,
    157,
    158,
    159,
    160,
    161,
    162,
    163,
    164,
    165,
    166,
    167,
    168,
    169,
    170,
    171,
    172,
    173,
    174,
    175,
    176,
    177,
    178,
    179,
    180,
    181,
    182,
    183,
    184,
    185,
    186,
    187,
    188,
    189,
    190,
    191,
    192,
    193,
    194,
    195,
    196,
    197,
    198,
    199,
    200,
    201,
    202,
    203,
    204,
    205,
    206,
    207,
    208,
    209,
    210,
    211,
    212,
    213,
    214,
    215,
    216,
    217,
    218,
    219,
    220,
    221,
    222,
    223,
    224,
    225,
    226,
    227,
    228,
    229,
    230,
    231,
    232,
    233,
    234,
    235,
    236,
    237,
    238,
    239,
    240,
    241,
    242,
    243,
    244,
    245,
    246,
    247,
    248,
    249,
    250,
    251,
    252,
    253,
    254,
    255,
    256
   ],
   "AcquisitionTime": [
    "123849.805000",
    "123851.805000",
    "123853.805000",
    "123855.805000",
    "123857.805000",
    "123859.805000",
    "123901.805000",
    "123903.805000",
    "123905.805000",
    "123907.805000",
    "123909.805000",
    "123911.805000",
    "123913.805000",
    "123915.805000",
    "123917.805000",
    "123919.805000",
    "123921.805000",
    "123923.805000",
    "123925.805000",
    "123927.805000",
    "123929.805000",
    "123931.805000",
    "123933.805000",
    "123935.805000",
    "123937.805000",
    "123939.805000",
    "123941.805000",
    "123943.805000",
    "123945.805000",
    "123947.805000",
    "123949.805000",
    "123951.805000",
    "123953.805000",
    "123955.805000",
    "123957.805000",
    "123959.805000",
    "124001.805000",
    "124003.805000",
    "124005.805000",
    "124007.805000",
    "124009.805000",
    "124011.805000",
    "124013.805000",
    "124015.805000",
    "124017.805000",
    "124019.805000",
    "124021.805000",
    "124023.805000",
    "124025.805000",
    "124027.805000",
    "124029.805000",
    "124031.805000",
    "124033.805000",
    "124035.805000",
    "124037.805000",
    "124039.805000",
    "124041.805000",
    "124043.805000",
    "124045.805000",
    "124047.805000",
    "124049.805000",
    "124051.805000",
    "124053.805000",
    "124055.805000",
    "124057.805000",
    "124059.805000",
    "124101.805000",
    "124103.805000",
    "124105.805000",
    "124107.805000",
    "124109.805000",
    "124111.805000",
    "124113.805000",
    "124115.805000",
    "124117.805000",
    "124119.805000",
    "124121.805000",
    "124123.805000",
    "124125.805000",
    "124127.805000",
    "124129.805000",
    "124131.805000",
    "124133.805000",
    "124135.805000",
    "124137.805000",
    "124139.805000",
    "124141.805000",
    "124143.805000",
    "124145.805000",
    "124147.805000",
    "124149.805000",
    "124151.805000",
    "124153.805000",
    "124155.805000",
    "124157.805000",
    "124159.805000",
    "124201.805000",
    "124203.805000",
    "124205.805000",
    "124207.805000",
    "124209.805000",
    "124211.805000",
    "124213.805000",
    "124215.805000",
    "124217.805000",
    "124219.805000",
    "124221.805000",
    "124223.805000",
    "124225.805000",
    "124227.805000",
    "124229.805000",
    "124231.805000",
    "124233.805000",
    "124235.805000",
    "124237.805000",
    "124239.805000",
    "124241.805000",
    "124243.805000",
    "124245.805000",
    "124247.805000",
    "124249.805000",
    "124251.805000",
    "124253.805000",
    "124255.805000",
    "124257.805000",
    "124259.805000",
    "124301.805000",
    "124303.805000",
    "124305.805000",
    "124307.805000",
    "124309.805000",
    "124311.805000",
    "124313.805000",
    "124315.805000",
    "124317.805000",
    "124319.805000",
    "124321.805000",
    "124323.805000",
    "124325.805000",
    "124327.805000",
    "124329.805000",
    "124331.805000",
    "124333.805000",
    "124335.805000",
    "124337.805000",
    "124339.805000",
    "124341.805000",
    "124343.805000",
    "124345.805000",
    "124347.805000",
    "124349.805000",
    "124351.805000",
    "124353.805000",
    "124355.805000",
    "124357.805000",
    "124359.805000",
    "124401.805000",
    "124403.805000",
    "124405.805000",
    "124407.805000",
    "124409.805000",
    "124411.805000",
    "124413.805000",
    "124415.805000",
    "124417.805000",
    "124419.805000",
    "124421.805000",
    "124423.805000",
    "124425.805000",
    "124427.805000",
    "124429.805000",
    "124431.805000",
    "124433.805000",
    "124435.805000",
    "124437.805000",
    "124439.805000",
    "124441.805000",
    "124443.805000",
    "124445.805000",
    "124447.805000",
    "124449.805000",
    "124451.805000",
    "124453.805000",
    "124455.805000",
    "124457.805000",
    "124459.805000",
    "124501.805000",
    "124503.805000",
    "124505.805000",
    "124507.805000",
    "124509.805000",
    "124511.805000",
    "124513.805000",
    "124515.805000",
    "124517.805000",
    "124519.805000",
    "124521.805000",
    "124523.805000",
    "124525.805000",
    "124527.805000",
    "124529.805000",
    "124531.805000",
    "124533.805000",
    "124535.805000",
    "124537.805000",
    "124539.805000",
    "124541.805000",
    "124543.805000",
    "124545.805000",
    "124547.805000",
    "124549.805000",
    "124551.805000",
    "124553.805000",
    "124555.805000",
    "124557.805000",
    "124559.805000",
    "124601.805000",
    "124603.805000",
    "124605.805000",
    "124607.805000",
    "124609.805000",
    "124611.805000",
    "124613.805000",
    "124615.805000",
    "124617.805000",
    "124619.805000",
    "124621.805000",
    "124623.805000",
    "124625.805000",
    "124627.805000",
    "124629.805000",
    "124631.805000",
    "124633.805000",
    "124635.805000",
    "124637.805000",
    "124639.805000",
    "124641.805000",
    "124643.805000",
    "124645.805000",
    "124647.805000",
    "124649.805000",
    "124651.805000",
    "124653.805000",
    "124655.805000",
    "124657.805000",
    "124659.805000",
    "124701.805000",
    "124703.805000",
    "124705.805000",
    "124707.805000",
    "124709.805000",
    "124711.805000",
    "124713.805000",
    "124715.805000",
    "124717.805000",
    "124719.805000"
   ],
   "ContentTime": [
    "123852.030000",
    "123853.526000",
    "123855.526000",
    "123857.525000",
    "123859.524000",
    "123901.525000",
    "123903.525000",
    "123905.525000",
    "123907.526000",
    "123909.526000",
    "123911.526000",
    "123913.525000",
    "123915.526000",
    "123917.524000",
    "123919.524000",
    "123921.525000",
    "123923.525000",
    "123925.526000",
    "123927.525000",
    "123929.526000",
    "123931.526000",
    "123933.524000",
    "123935.525000",
    "123937.524000",
    "123939.525000",
    "123941.525000",
    "123943.525000",
    "123945.525000",
    "123947.526000",
    "123949.525000",
    "123951.524000",
    "123953.525000",
    "123955.526000",
    "123957.526000",
    "123959.526000",
    "124001.526000",
    "124003.526000",
    "124005.525000",
    "124007.525000",
    "124009.524000",
    "124011.525000",
    "124013.526000",
    "124015.525000",
    "124017.525000",
    "124019.525000",
    "124021.526000",
    "124023.525000",
    "124025.525000",
    "124027.525000",
    "124029.525000",
    "124031.526000",
    "124033.525000",
    "124035.526000",
    "124037.525000",
    "124039.526000",
    "124041.526000",
    "124043.524000",
    "124045.524000",
    "124047.525000",
    "124049.525000",
    "124051.525000",
    "124053.526000",
    "124055.526000",
    "124057.525000",
    "124059.526000",
    "124101.524000",
    "124103.525000",
    "124105.526000",
    "124107.525000",
    "124109.526000",
    "124111.525000",
    "124113.525000",
    "124115.526000",
    "124117.525000",
    "124119.525000",
    "124121.525000",
    "124123.526000",
    "124125.525000",
    "124127.525000",
    "124129.525000",
    "124131.525000",
    "124133.526000",
    "124135.525000",
    "124137.525000",
    "124139.525000",
    "124141.526000",
    "124143.526000",
    "124145.526000",
    "124147.526000",
    "124149.526000",
    "124151.525000",
    "124153.525000",
    "124155.525000",
    "124157.524000",
    "124159.526000",
    "124201.526000",
    "124203.526000",
    "124205.525000",
    "124207.525000",
    "124209.526000",
    "124211.525000",
    "124213.525000",
    "124215.526000",
    "124217.526000",
    "124219.526000",
    "124221.525000",
    "124223.526000",
    "124225.525000",
    "124227.525000",
    "124229.524000",
    "124231.524000",
    "124233.526000",
    "124235.525000",
    "124237.525000",
    "124239.525000",
    "124241.525000",
    "124243.526000",
    "124245.525000",
    "124247.524000",
    "124249.524000",
    "124251.525000",
    "124253.526000",
    "124255.525000",
    "124257.525000",
    "124259.525000",
    "124301.526000",
    "124303.525000",
    "124305.524000",
    "124307.526000",
    "124309.525000",
    "124311.525000",
    "124313.526000",
    "124315.526000",
    "124317.526000",
    "124319.526000",
    "124321.525000",
    "124323.524000",
    "124325.525000",
    "124327.525000",
    "124329.525000",
    "124331.525000",
    "124333.525000",
    "124335.525000",
    "124337.538000",
    "124339.524000",
    "124341.525000",
    "124343.526000",
    "124345.525000",
    "124347.525000",
    "124349.525000",
    "124351.526000",
    "124353.525000",
    "124355.525000",
    "124357.524000",
    "124359.525000",
    "124401.526000",
    "124403.526000",
    "124405.526000",
    "124407.526000",
    "124409.526000",
    "124411.525000",
    "124413.525000",
    "124415.525000",
    "124417.525000",
    "124419.526000",
    "124421.525000",
    "124423.526000",
    "124425.526000",
    "124427.525000",
    "124429.526000",
    "124431.525000",
    "124433.524000",
    "124435.526000",
    "124437.526000",
    "124439.526000",
    "124441.525000",
    "124443.525000",
    "124445.525000",
    "124447.526000",
    "124449.525000",
    "124451.524000",
    "124453.526000",
    "124455.525000",
    "124457.526000",
    "124459.525000",
    "124501.526000",
    "124503.525000",
    "124505.525000",
    "124507.525000",
    "124509.524000",
    "124511.526000",
    "124513.526000",
    "124515.526000",
    "124517.525000",
    "124519.525000",
    "124521.526000",
    "124523.525000",
    "124525.524000",
    "124527.526000",
    "124529.526000",
    "124531.526000",
    "124533.525000",
    "124535.526000",
    "124537.525000",
    "124539.526000",
    "124541.525000",
    "124543.525000",
    "124545.525000",
    "124547.526000",
    "124549.526000",
    "124551.526000",
    "124553.526000",
    "124555.525000",
    "124557.525000",
    "124559.525000",
    "124601.524000",
    "124603.525000",
    "124605.526000",
    "124607.526000",
    "124609.525000",
    "124611.526000",
    "124613.526000",
    "124615.526000",
    "124617.525000",
    "124619.524000",
    "124621.525000",
    "124623.526000",
    "124625.526000",
    "124627.526000",
    "124629.525000",
    "124631.526000",
    "124633.525000",
    "124635.525000",
    "124637.526000",
    "124639.526000",
    "124641.526000",
    "124643.526000",
    "124645.525000",
    "124647.526000",
    "124649.526000",
    "124651.525000",
    "124653.525000",
    "124655.525000",
    "124657.525000",
    "124659.526000",
    "124701.525000",
    "124703.526000",
    "124705.525000",
    "124707.526000",
    "124709.524000",
    "124711.525000",
    "124713.525000",
    "124715.526000",
    "124717.526000",
    "124719.525000",
    "124721.291000"
   ],
   "InstanceCreationTime": [
    "123852.030000",
    "123853.526000",
    "123855.526000",
    "123857.525000",
    "123859.524000",
    "123901.525000",
    "123903.525000",
    "123905.525000",
    "123907.526000",
    "123909.526000",
    "123911.526000",
    "123913.525000",
    "123915.526000",
    "123917.524000",
    "123919.524000",
    "123921.525000",
    "123923.525000",
    "123925.526000",
    "123927.525000",
    "123929.526000",
    "123931.526000",
    "123933.524000",
    "123935.525000",
    "123937.524000",
    "123939.525000",
    "123941.525000",
    "123943.525000",
    "123945.525000",
    "123947.526000",
    "123949.525000",
    "123951.524000",
    "123953.525000",
    "123955.526000",
    "123957.526000",
    "123959.526000",
    "124001.526000",
    "124003.526000",
    "124005.525000",
    "124007.525000",
    "124009.524000",
    "124011.525000",
    "124013.526000",
    "124015.525000",
    "124017.525000",
    "124019.525000",
    "124021.526000",
    "124023.525000",
    "124025.525000",
    "124027.525000",
    "124029.525000",
    "124031.526000",
    "124033.525000",
    "124035.526000",
    "124037.525000",
    "124039.526000",
    "124041.526000",
    "124043.524000",
    "124045.524000",
    "124047.525000",
    "124049.525000",
    "124051.525000",
    "124053.526000",
    "124055.526000",
    "124057.525000",
    "124059.526000",
    "124101.524000",
    "124103.525000",
    "124105.526000",
    "124107.525000",
    "124109.526000",
    "124111.525000",
    "124113.525000",
    "124115.526000",
    "124117.525000",
    "124119.525000",
    "124121.525000",
    "124123.526000",
    "124125.525000",
    "124127.525000",
    "124129.525000",
    "124131.525000",
    "124133.526000",
    "124135.525000",
    "124137.525000",
    "124139.525000",
    "124141.526000",
    "124143.526000",
    "124145.526000",
    "124147.526000",
    "124149.526000",
    "124151.525000",
    "124153.525000",
    "124155.525000",
    "124157.524000",
    "124159.526000",
    "124201.526000",
    "124203.526000",
    "124205.525000",
    "124207.525000",
    "124209.526000",
    "124211.525000",
    "124213.525000",
    "124215.526000",
    "124217.526000",
    "124219.526000",
    "124221.525000",
    "124223.526000",
    "124225.525000",
    "124227.525000",
    "124229.524000",
    "124231.524000",
    "124233.526000",
    "124235.525000",
    "124237.525000",
    "124239.525000",
    "124241.525000",
    "124243.526000",
    "124245.525000",
    "124247.524000",
    "124249.524000",
    "124251.525000",
    "124253.526000",
    "124255.525000",
    "124257.525000",
    "124259.525000",
    "124301.526000",
    "124303.525000",
    "124305.524000",
    "124307.526000",
    "124309.525000",
    "124311.525000",
    "124313.526000",
    "124315.526000",
    "124317.526000",
    "124319.526000",
    "124321.525000",
    "124323.524000",
    "124325.525000",
    "124327.525000",
    "124329.525000",
    "124331.525000",
    "124333.525000",
    "124335.525000",
    "124337.538000",
    "124339.524000",
    "124341.525000",
    "124343.526000",
    "124345.525000",
    "124347.525000",
    "124349.525000",
    "124351.526000",
    "124353.525000",
    "124355.525000",
    "124357.524000",
    "124359.525000",
    "124401.526000",
    "124403.526000",
    "124405.526000",
    "124407.526000",
    "124409.526000",
    "124411.525000",
    "124413.525000",
    "124415.525000",
    "124417.525000",
    "124419.526000",
    "124421.525000",
    "124423.526000",
    "124425.526000",
    "124427.525000",
    "124429.526000",
    "124431.525000",
    "124433.524000",
    "124435.526000",
    "124437.526000",
    "124439.526000",
    "124441.525000",
    "124443.525000",
    "124445.525000",
    "124447.526000",
    "124449.525000",
    "124451.524000",
    "124453.526000",
    "124455.525000",
    "124457.526000",
    "124459.525000",
    "124501.526000",
    "124503.525000",
    "124505.525000",
    "124507.525000",
    "124509.524000",
    "124511.526000",
    "124513.526000",
    "124515.526000",
    "124517.525000",
    "124519.525000",
    "124521.526000",
    "124523.525000",
    "124525.524000",
    "124527.526000",
    "124529.526000",
    "124531.526000",
    "124533.525000",
    "124535.526000",
    "124537.525000",
    "124539.526000",
    "124541.525000",
    "124543.525000",
    "124545.525000",
    "124547.526000",
    "124549.526000",
    "124551.526000",
    "124553.526000",
    "124555.525000",
    "124557.525000",
    "124559.525000",
    "124601.524000",
    "124603.525000",
    "124605.526000",
    "124607.526000",
    "124609.525000",
    "124611.526000",
    "124613.526000",
    "124615.526000",
    "124617.525000",
    "124619.524000",
    "124621.525000",
    "124623.526000",
    "124625.526000",
    "124627.526000",
    "124629.525000",
    "124631.526000",
    "124633.525000",
    "124635.525000",
    "124637.526000",
    "124639.526000",
    "124641.526000",
    "124643.526000",
    "124645.525000",
    "124647.526000",
    "124649.526000",
    "124651.525000",
    "124653.525000",
    "124655.525000",
    "124657.525000",
    "124659.526000",
    "124701.525000",
    "124703.526000",
    "124705.525000",
    "124707.526000",
    "124709.524000",
    "124711.525000",
    "124713.525000",
    "124715.526000",
    "124717.526000",
    "124719.525000",
    "124721.291000"
   ],
   "InstanceNumber": [
    1,
    2,
    3,
    4,
    5,
    6,
    7,
    8,
    9,
    10,
    11,
    12,
    13,
    14,
    15,
    16,
    17,
    18,
    19,
    20,
    21,
    22,
    23,
    24,
    25,
    26,
    27,
    28,
    29,
    30,
    31,
    32,
    33,
    34,
    35,
    36,
    37,
    38,
    39,
    40,
    41,
    42,
    43,
    44,
    45,
    46,
    47,
    48,
    49,
    50,
    51,
    52,
    53,
    54,
    55,
    56,
    57,
    58,
    59,
    60,
    61,
    62,
    63,
    64,
    65,
    66,
    67,
    68,
    69,
    70,
    71,
    72,
    73,
    74,
    75,
    76,
    77,
    78,
    79,
    80,
    81,
    82,
    83,
    84,
    85,
    86,
    87,
    88,
    89,
    90,
    91,
    92,
    93,
    94,
    95,
    96,
    97,
    98,
    99,
    100,
    101,
    102,
    103,
    104,
    105,
    106,
    107,
    108,
    109,
    110,
    111,
    112,
    113,
    114,
    115,
    116,
    117,
    118,
    119,
    120,
    121,
    122,
    123,
    124,
    125,
    126,
    127,
    128,
    129,
    130,
    131,
    132,
    133,
    134,
    135,
    136,
    137,
    138,
    139,
    140,
    141,
    142,
    143,
    144,
    145,
    146,
    147,
    148,
    149,
    150,
    151,
    152,
    153,
    154,
    155,
    156,
    157,
    158,
    159,
    160,
    161,
    162,
    163,
    164,
    165,
    166,
    167,
    168,
    169,
    170,
    171,
    172,
    173,
    174,
    175,
    176,
    177,
    178,
    179,
    180,
    181,
    182,
    183,
    184,
    185,
    186,
    187,
    188,
    189,
    190,
    191,
    192,
    193,
    194,
    195,
    196,
    197,
    198,
    199,
    200,
    201,
    202,
    203,
    204,
    205,
    206,
    207,
    208,
    209,
    210,
    211,
    212,
    213,
    214,
    215,
    216,
    217,
    218,
    219,
    220,
    221,
    222,
    223,
    224,
    225,
    226,
    227,
    228,
    229,
    230,
    231,
    232,
    233,
    234,
    235,
    236,
    237,
    238,
    239,
    240,
    241,
    242,
    243,
    244,
    245,
    246,
    247,
    248,
    249,
    250,
    251,
    252,
    253,
    254,
    255,
    256
   ],
   "LargestImagePixelValue": [
    3665,
    3613,
    3636,
    3600,
    3677,
    3630,
    3599,
    3616,
    3632,
    3648,
    3621,
    3594,
    3599,
    3617,
    3615,
    3623,
    3588,
    3656,
    3608,
    3628,
    3607,
    3669,
    3700,
    3687,
    3665,
    3603,
    3590,
    3586,
    3630,
    3622,
    3642,
    3639,
    3669,
    3656,
    3687,
    3660,
    3663,
    3658,
    3694,
    3665,
    3620,
    3614,
    3602,
    3591,
    3635,
    3608,
    3636,
    3644,
    3669,
    3731,
    3708,
    3705,
    3634,
    3554,
    3547,
    3576,
    3662,
    3592,
    3629,
    3674,
    3656,
    3644,
    3623,
    3669,
    3727,
    3664,
    3634,
    3662,
    3680,
    3718,
    3696,
    3665,
    3696,
    3619,
    3638,
    3623,
    3596,
    3646,
    3654,
    3637,
    3656,
    3661,
    3670,
    3686,
    3705,
    3647,
    3651,
    3616,
    3601,
    3559,
    3557,
    3574,
    3559,
    3548,
    3664,
    3742,
    3690,
    3604,
    3672,
    3724,
    3614,
    3614,
    3581,
    3603,
    3655,
    3612,
    3678,
    3600,
    3620,
    3637,
    3668,
    3626,
    3694,
    3625,
    3626,
    3641,
    3684,
    3682,
    3697,
    3736,
    3642,
    3666,
    3661,
    3642,
    3642,
    3839,
    3750,
    3699,
    3585,
    3587,
    3564,
    3616,
    3627,
    3635,
    3678,
    3615,
    3637,
    3640,
    3672,
    3673,
    3671,
    3635,
    3648,
    3644,
    3660,
    3595,
    3648,
    3639,
    3616,
    3640,
    3615,
    3612,
    3636,
    3601,
    3648,
    3595,
    3630,
    3592,
    3605,
    3599,
    3589,
    3545,
    3556,
    3536,
    3587,
    3650,
    3655,
    3565,
    3731,
    3618,
    3567,
    3583,
    3597,
    3565,
    3580,
    3640,
    3594,
    3641,
    3587,
    3566,
    3585,
    3556,
    3604,
    3584,
    3690,
    3739,
    3692,
    3653,
    3633,
    3626,
    3589,
    3609,
    3566,
    3555,
    3580,
    3587,
    3574,
    3587,
    3593,
    3574,
    3636,
    3773,
    3699,
    3573,
    3780,
    3680,
    3546,
    3620,
    3700,
    3536,
    3545,
    3558,
    3578,
    3571,
    3657,
    3627,
    3564,
    3678,
    3577,
    3547,
    3561,
    3543,
    3520,
    3554,
    3513,
    3607,
    3503,
    3602,
    3661,
    3657,
    3696,
    3653,
    3615,
    3509,
    3558,
    3565,
    3546,
    3594,
    3631,
    3593,
    3514,
    3515,
    3538,
    3648,
    3613,
    3653,
    3650,
    3613,
    3553,
    3568,
    3580,
    3627,
    3554,
    3558,
    3613,
    3630
   ],
   "WindowCenter": [
    808.0,
    807.0,
    806.0,
    807.0,
    807.0,
    807.0,
    806.0,
    807.0,
    807.0,
    807.0,
    807.0,
    807.0,
    806.0,
    807.0,
    806.0,
    806.0,
    806.0,
    807.0,
    807.0,
    807.0,
    806.0,
    806.0,
    807.0,
    807.0,
    807.0,
    806.0,
    806.0,
    807.0,
    808.0,
    807.0,
    807.0,
    806.0,
    806.0,
    806.0,
    807.0,
    807.0,
    807.0,
    807.0,
    807.0,
    808.0,
    808.0,
    808.0,
    808.0,
    807.0,
    807.0,
    806.0,
    807.0,
    807.0,
    807.0,
    808.0,
    808.0,
    807.0,
    807.0,
    807.0,
    807.0,
    808.0,
    808.0,
    808.0,
    807.0,
    806.0,
    805.0,
    805.0,
    806.0,
    807.0,
    808.0,
    807.0,
    806.0,
    805.0,
    805.0,
    806.0,
    806.0,
    806.0,
    806.0,
    806.0,
    806.0,
    807.0,
    807.0,
    807.0,
    807.0,
    806.0,
    806.0,
    806.0,
    806.0,
    806.0,
    806.0,
    807.0,
    807.0,
    806.0,
    806.0,
    805.0,
    806.0,
    807.0,
    808.0,
    809.0,
    810.0,
    810.0,
    810.0,
    808.0,
    807.0,
    807.0,
    806.0,
    806.0,
    805.0,
    805.0,
    805.0,
    805.0,
    805.0,
    806.0,
    806.0,
    805.0,
    805.0,
    804.0,
    804.0,
    804.0,
    804.0,
    805.0,
    805.0,
    805.0,
    805.0,
    806.0,
    806.0,
    806.0,
    806.0,
    807.0,
