{
 "AcquisitionMatrixPE": 100,
 "AcquisitionNumber": 1,
 "AcquisitionTime": "15:49:21.387500",
 "BandwidthPerPixelPhaseEncode": 18.519,
 "BaseResolution": 100,
 "BodyPartExamined": "BRAIN",
 "ConsistencyInfo": "N4_VE11C_LATEST_20160120",
 "ConversionSoftware": "dcm2niix",
 "ConversionSoftwareVersion": "v1.0.20180622 GCC4.9.2",
 "DerivedVendorReportedEchoSpacing": 0.000539986,
 "DeviceSerialNumber": "166078",
 "DwellTime": 2.1e-06,
 "EchoTime": 0.034,
 "EchoTrainLength": 100,
 "EffectiveEchoSpacing": 0.000539986,
 "FlipAngle": 90,
 "ImageOrientationPatientDICOM": [
  1,
  0,
  0,
  0,
  0.992757,
  -0.120137
 ],
 "ImageType": [
  "ORIGINAL",
  "PRIMARY",
  "M",
  "ND",
  "MOSAIC"
 ],
 "InPlanePhaseEncodingDirectionDICOM": "COL",
 "InstitutionAddress": "Street_StreetNo_Bei_Jing_District_CN_ZIP",
 "InstitutionName": "BeiJing_Normal_University",
 "InstitutionalDepartmentName": "Department",
 "MRAcquisitionType": "2D",
 "MagneticFieldStrength": 3,
 "Manufacturer": "Siemens",
 "ManufacturersModelName": "Prisma",
 "Modality": "MR",
 "MultibandAccelerationFactor": 3,
 "PartialFourier": 1,
 "PatientPosition": "HFS",
 "PercentPhaseFOV": 100,
 "PhaseEncodingDirection": "j-",
 "PhaseEncodingSteps": 100,
 "PhaseResolution": 1,
 "PixelBandwidth": 2380,
 "ProcedureStepDescription": "BNU_P2018_64CH_Zhen.ZongLei",
 "ProtocolName": "bold_100x100_s3_2x2x2_static_256",
 "PulseSequenceDetails": "%SiemensSeq%_ep2d_bold",
 "ReceiveCoilActiveElements": "HC1-7;NC1",
 "ReceiveCoilName": "HeadNeck_64",
 "ReconMatrixPE": 100,
 "RepetitionTime": 2,
 "SAR": 0.0812363,
 "ScanOptions": "FS",
 "ScanningSequence": "EP",
 "SequenceName": "_epfid2d1_100",
 "SequenceVariant": "SK",
 "SeriesDescription": "bold_100x100_s3_2x2x2_static_256",
 "SeriesNumber": 7,
 "ShimSetting": [
  -5469,
  -11521,
  -1267,
  437,
  -7,
  -194,
  -148,
  39
 ],
 "SliceThickness": 2,
 "SliceTiming": [
  1.485,
  0,
  0.99,
  0.0825,
  1.0725,
  0.165,
  1.155,
  0.2475,
  1.2375,
  0.33,
  1.32,
  0.4125,
  1.4025,
  0.5775,
  1.5675,
  0.66,
  1.65,
  0.7425,
  1.7325,
  0.825,
  1.815,
  0.9075,
  1.8975,
  0.495,
  1.485,
  0,
  0.99,
  0.0825,
  1.0725,
  0.165,
  1.155,
  0.2475,
  1.2375,
  0.33,
  1.32,
  0.4125,
  1.4025,
  0.5775,
  1.5675,
  0.66,
  1.65,
  0.7425,
  1.7325,
  0.825,
  1.815,
  0.9075,
  1.8975,
  0.495,
  1.485,
  0,
  0.99,
  0.0825,
  1.0725,
  0.165,
  1.155,
  0.2475,
  1.2375,
  0.33,
  1.32,
  0.4125,
  1.4025,
  0.5775,
  1.5675,
  0.66,
  1.65,
  0.7425,
  1.7325,
  0.825,
  1.815,
  0.9075,
  1.8975,
  0.495
 ],
 "SoftwareVersions": "syngo_MR_E11",
 "SpacingBetweenSlices": 2,
 "StationName": "AWP166078",
 "TaskName": "imagenet",
 "TotalReadoutTime": 0.0534586,
 "TxRefAmp": 211.566,
 "dcmmeta_affine": [
  [
   -2.0,
   0.0,
   0.0,
   106.0722885131836
  ],
  [
   0.0,
   1.9855146408081055,
   -0.24027368426322937,
   -89.5556869506836
  ],
  [
   0.0,
   0.24027368426322937,
   1.9855146408081055,
   -63.77243423461914
  ],
  [
   0.0,
   0.0,
   0.0,
   1.0
  ]
 ],
 "dcmmeta_reorient_transform": [
  [
   0.0,
   -1.0,
   0.0,
   99.0
  ],
  [
   1.0,
   0.0,
   0.0,
   0.0
  ],
  [
   0.0,
   0.0,
   1.0,
   0.0
  ],
  [
   0.0,
   0.0,
   0.0,
   1.0
  ]
 ],
 "dcmmeta_shape": [
  100,
  100,
  72,
  256
 ],
 "dcmmeta_slice_dim": 2,
 "dcmmeta_version": 0.6,
 "global": {
  "const": {
   "AcquisitionMatrix": [
    100,
    0,
    0,
    100
   ],
   "AngioFlag": "N",
   "BitsAllocated": 16,
   "BitsStored": 12,
   "BodyPartExamined": "BRAIN",
   "Columns": 900,
   "EchoNumbers": 1,
   "EchoTime": 34.0,
   "EchoTrainLength": 100,
   "FlipAngle": 90.0,
   "HighBit": 11,
   "ImageOrientationPatient": [
    1.0,
    0.0,
    0.0,
    0.0,
    0.99275734119381,
    -0.1201368449136
   ],
   "ImagePositionPatient": [
    -906.07228899002,
    -901.21614181488,
    56.124136984749
   ],
   "ImageType": [
    "ORIGINAL",
    "PRIMARY",
    "M",
    "ND",
    "MOSAIC"
   ],
   "ImagedNucleus": "1H",
   "ImagingFrequency": 123.257768,
   "InPlanePhaseEncodingDirection": "COL",
   "MRAcquisitionType": "2D",
   "MagneticFieldStrength": 3.0,
   "Manufacturer": "SIEMENS",
   "ManufacturerModelName": "Prisma",
   "Modality": "MR",
   "NumberOfAverages": 1.0,
   "NumberOfPhaseEncodingSteps": 100,
   "PercentPhaseFieldOfView": 100.0,
   "PercentSampling": 100.0,
   "PerformedProcedureStepStartTime": "150633.316000",
   "PhotometricInterpretation": "MONOCHROME2",
   "PixelBandwidth": 2380.0,
   "PixelRepresentation": 0,
   "PixelSpacing": [
    2.0,
    2.0
   ],
   "ProtocolName": "bold_100x100_s3_2x2x2_static_256",
   "RepetitionTime": 2000.0,
   "Rows": 900,
   "SAR": 0.08123632501449,
   "SamplesPerPixel": 1,
   "ScanOptions": "FS",
   "ScanningSequence": "EP",
   "SequenceName": "*epfid2d1_100",
   "SequenceVariant": "SK",
   "SeriesDescription": "bold_100x100_s3_2x2x2_static_256",
   "SeriesNumber": 7,
   "SeriesTime": "154923.866000",
   "SliceLocation": -52.551614853079,
   "SliceThickness": 2.0,
   "SmallestImagePixelValue": 0,
   "SoftwareVersions": "syngo MR E11",
   "SpacingBetweenSlices": 1.9999999963933,
   "SpecificCharacterSet": "ISO_IR 100",
   "StudyID": "1",
   "StudyTime": "150633.216000",
   "TransmitCoilName": "Body",
   "VariableFlipAngleFlag": "N",
   "WindowCenterWidthExplanation": "Algo1",
   "dBdt": 0.0
  },
  "slices": {}
 },
 "time": {
  "samples": {
   "AcquisitionNumber": [
    1,
    2,
    3,
    4,
    5,
    6,
    7,
    8,
    9,
    10,
    11,
    12,
    13,
    14,
    15,
    16,
    17,
    18,
    19,
    20,
    21,
    22,
    23,
    24,
    25,
    26,
    27,
    28,
    29,
    30,
    31,
    32,
    33,
    34,
    35,
    36,
    37,
    38,
    39,
    40,
    41,
    42,
    43,
    44,
    45,
    46,
    47,
    48,
    49,
    50,
    51,
    52,
    53,
    54,
    55,
    56,
    57,
    58,
    59,
    60,
    61,
    62,
    63,
    64,
    65,
    66,
    67,
    68,
    69,
    70,
    71,
    72,
    73,
    74,
    75,
    76,
    77,
    78,
    79,
    80,
    81,
    82,
    83,
    84,
    85,
    86,
    87,
    88,
    89,
    90,
    91,
    92,
    93,
    94,
    95,
    96,
    97,
    98,
    99,
    100,
    101,
    102,
    103,
    104,
    105,
    106,
    107,
    108,
    109,
    110,
    111,
    112,
    113,
    114,
    115,
    116,
    117,
    118,
    119,
    120,
    121,
    122,
    123,
    124,
    125,
    126,
    127,
    128,
    129,
    130,
    131,
    132,
    133,
    134,
    135,
    136,
    137,
    138,
    139,
    140,
    141,
    142,
    143,
    144,
    145,
    146,
    147,
    148,
    149,
    150,
    151,
    152,
    153,
    154,
    155,
    156,
    157,
    158,
    159,
    160,
    161,
    162,
    163,
    164,
    165,
    166,
    167,
    168,
    169,
    170,
    171,
    172,
    173,
    174,
    175,
    176,
    177,
    178,
    179,
    180,
    181,
    182,
    183,
    184,
    185,
    186,
    187,
    188,
    189,
    190,
    191,
    192,
    193,
    194,
    195,
    196,
    197,
    198,
    199,
    200,
    201,
    202,
    203,
    204,
    205,
    206,
    207,
    208,
    209,
    210,
    211,
    212,
    213,
    214,
    215,
    216,
    217,
    218,
    219,
    220,
    221,
    222,
    223,
    224,
    225,
    226,
    227,
    228,
    229,
    230,
    231,
    232,
    233,
    234,
    235,
    236,
    237,
    238,
    239,
    240,
    241,
    242,
    243,
    244,
    245,
    246,
    247,
    248,
    249,
    250,
    251,
    252,
    253,
    254,
    255,
    256
   ],
   "AcquisitionTime": [
    "154921.387500",
    "154923.387500",
    "154925.387500",
    "154927.387500",
    "154929.387500",
    "154931.387500",
    "154933.387500",
    "154935.387500",
    "154937.387500",
    "154939.387500",
    "154941.387500",
    "154943.387500",
    "154945.387500",
    "154947.387500",
    "154949.387500",
    "154951.387500",
    "154953.387500",
    "154955.387500",
    "154957.387500",
    "154959.387500",
    "155001.387500",
    "155003.387500",
    "155005.387500",
    "155007.387500",
    "155009.387500",
    "155011.387500",
    "155013.387500",
    "155015.387500",
    "155017.387500",
    "155019.387500",
    "155021.387500",
    "155023.387500",
    "155025.387500",
    "155027.387500",
    "155029.387500",
    "155031.387500",
    "155033.387500",
    "155035.387500",
    "155037.387500",
    "155039.387500",
    "155041.387500",
    "155043.387500",
    "155045.387500",
    "155047.387500",
    "155049.387500",
    "155051.387500",
    "155053.387500",
    "155055.387500",
    "155057.387500",
    "155059.387500",
    "155101.387500",
    "155103.387500",
    "155105.387500",
    "155107.387500",
    "155109.387500",
    "155111.387500",
    "155113.387500",
    "155115.387500",
    "155117.387500",
    "155119.387500",
    "155121.387500",
    "155123.387500",
    "155125.387500",
    "155127.387500",
    "155129.387500",
    "155131.387500",
    "155133.387500",
    "155135.387500",
    "155137.387500",
    "155139.387500",
    "155141.387500",
    "155143.387500",
    "155145.387500",
    "155147.387500",
    "155149.387500",
    "155151.387500",
    "155153.387500",
    "155155.387500",
    "155157.387500",
    "155159.387500",
    "155201.387500",
    "155203.387500",
    "155205.387500",
    "155207.387500",
    "155209.387500",
    "155211.387500",
    "155213.387500",
    "155215.387500",
    "155217.387500",
    "155219.387500",
    "155221.387500",
    "155223.387500",
    "155225.387500",
    "155227.387500",
    "155229.387500",
    "155231.387500",
    "155233.387500",
    "155235.387500",
    "155237.387500",
    "155239.387500",
    "155241.387500",
    "155243.387500",
    "155245.387500",
    "155247.387500",
    "155249.387500",
    "155251.387500",
    "155253.387500",
    "155255.387500",
    "155257.387500",
    "155259.387500",
    "155301.387500",
    "155303.387500",
    "155305.387500",
    "155307.387500",
    "155309.387500",
    "155311.387500",
    "155313.387500",
    "155315.387500",
    "155317.387500",
    "155319.387500",
    "155321.387500",
    "155323.387500",
    "155325.387500",
    "155327.387500",
    "155329.387500",
    "155331.387500",
    "155333.387500",
    "155335.387500",
    "155337.387500",
    "155339.387500",
    "155341.387500",
    "155343.387500",
    "155345.387500",
    "155347.387500",
    "155349.387500",
    "155351.387500",
    "155353.387500",
    "155355.387500",
    "155357.387500",
    "155359.387500",
    "155401.387500",
    "155403.387500",
    "155405.387500",
    "155407.387500",
    "155409.387500",
    "155411.387500",
    "155413.387500",
    "155415.387500",
    "155417.387500",
    "155419.387500",
    "155421.387500",
    "155423.387500",
    "155425.387500",
    "155427.387500",
    "155429.387500",
    "155431.387500",
    "155433.387500",
    "155435.387500",
    "155437.387500",
    "155439.387500",
    "155441.387500",
    "155443.387500",
    "155445.387500",
    "155447.387500",
    "155449.387500",
    "155451.387500",
    "155453.387500",
    "155455.387500",
    "155457.387500",
    "155459.387500",
    "155501.387500",
    "155503.387500",
    "155505.387500",
    "155507.387500",
    "155509.387500",
    "155511.387500",
    "155513.387500",
    "155515.387500",
    "155517.387500",
    "155519.387500",
    "155521.387500",
    "155523.387500",
    "155525.387500",
    "155527.387500",
    "155529.387500",
    "155531.387500",
    "155533.387500",
    "155535.387500",
    "155537.387500",
    "155539.387500",
    "155541.387500",
    "155543.387500",
    "155545.387500",
    "155547.387500",
    "155549.387500",
    "155551.387500",
    "155553.387500",
    "155555.387500",
    "155557.387500",
    "155559.387500",
    "155601.387500",
    "155603.387500",
    "155605.387500",
    "155607.387500",
    "155609.387500",
    "155611.387500",
    "155613.387500",
    "155615.387500",
    "155617.387500",
    "155619.387500",
    "155621.387500",
    "155623.387500",
    "155625.387500",
    "155627.387500",
    "155629.387500",
    "155631.387500",
    "155633.387500",
    "155635.387500",
    "155637.387500",
    "155639.387500",
    "155641.387500",
    "155643.387500",
    "155645.387500",
    "155647.387500",
    "155649.387500",
    "155651.387500",
    "155653.387500",
    "155655.387500",
    "155657.387500",
    "155659.387500",
    "155701.387500",
    "155703.387500",
    "155705.387500",
    "155707.387500",
    "155709.387500",
    "155711.387500",
    "155713.387500",
    "155715.387500",
    "155717.387500",
    "155719.387500",
    "155721.387500",
    "155723.387500",
    "155725.387500",
    "155727.387500",
    "155729.387500",
    "155731.387500",
    "155733.387500",
    "155735.387500",
    "155737.387500",
    "155739.387500",
    "155741.387500",
    "155743.387500",
    "155745.387500",
    "155747.387500",
    "155749.387500",
    "155751.387500"
   ],
   "ContentTime": [
    "154923.869000",
    "154925.364000",
    "154927.363000",
    "154929.364000",
    "154931.363000",
    "154933.364000",
    "154935.364000",
    "154937.364000",
    "154939.365000",
    "154941.365000",
    "154943.363000",
    "154945.364000",
    "154947.363000",
    "154949.363000",
    "154951.363000",
    "154953.364000",
    "154955.365000",
    "154957.365000",
    "154959.364000",
    "155001.363000",
    "155003.363000",
    "155005.363000",
    "155007.364000",
    "155009.364000",
    "155011.363000",
    "155013.364000",
    "155015.364000",
    "155017.364000",
    "155019.363000",
    "155021.364000",
    "155023.364000",
    "155025.363000",
    "155027.363000",
    "155029.363000",
    "155031.365000",
    "155033.364000",
    "155035.364000",
    "155037.363000",
    "155039.363000",
    "155041.363000",
    "155043.364000",
    "155045.364000",
    "155047.364000",
    "155049.365000",
    "155051.364000",
    "155053.363000",
    "155055.363000",
    "155057.363000",
    "155059.364000",
    "155101.364000",
    "155103.364000",
    "155105.365000",
    "155107.364000",
    "155109.364000",
    "155111.364000",
    "155113.363000",
    "155115.363000",
    "155117.363000",
    "155119.363000",
    "155121.363000",
    "155123.364000",
    "155125.364000",
    "155127.364000",
    "155129.364000",
    "155131.364000",
    "155133.363000",
    "155135.363000",
    "155137.363000",
    "155139.365000",
    "155141.364000",
    "155143.364000",
    "155145.364000",
    "155147.363000",
    "155149.364000",
    "155151.364000",
    "155153.364000",
    "155155.364000",
    "155157.365000",
    "155159.364000",
    "155201.365000",
    "155203.363000",
    "155205.363000",
    "155207.364000",
    "155209.363000",
    "155211.363000",
    "155213.364000",
    "155215.364000",
    "155217.364000",
    "155219.364000",
    "155221.364000",
    "155223.363000",
    "155225.364000",
    "155227.363000",
    "155229.364000",
    "155231.363000",
    "155233.364000",
    "155235.364000",
    "155237.364000",
    "155239.364000",
    "155241.363000",
    "155243.364000",
    "155245.364000",
    "155247.364000",
    "155249.365000",
    "155251.364000",
    "155253.364000",
    "155255.365000",
    "155257.363000",
    "155259.363000",
    "155301.363000",
    "155303.364000",
    "155305.363000",
    "155307.365000",
    "155309.365000",
    "155311.365000",
    "155313.364000",
    "155315.364000",
    "155317.364000",
    "155319.364000",
    "155321.363000",
    "155323.363000",
    "155325.364000",
    "155327.365000",
    "155329.365000",
    "155331.364000",
    "155333.364000",
    "155335.363000",
    "155337.364000",
    "155339.364000",
    "155341.364000",
    "155343.365000",
    "155345.365000",
    "155347.364000",
    "155349.364000",
    "155351.364000",
    "155353.364000",
    "155355.364000",
    "155357.364000",
    "155359.364000",
    "155401.364000",
    "155403.364000",
    "155405.364000",
    "155407.363000",
    "155409.363000",
    "155411.364000",
    "155413.364000",
    "155415.363000",
    "155417.364000",
    "155419.365000",
    "155421.365000",
    "155423.363000",
    "155425.363000",
    "155427.363000",
    "155429.364000",
    "155431.363000",
    "155433.363000",
    "155435.364000",
    "155437.365000",
    "155439.365000",
    "155441.364000",
    "155443.364000",
    "155445.364000",
    "155447.364000",
    "155449.363000",
    "155451.364000",
    "155453.365000",
    "155455.365000",
    "155457.365000",
    "155459.363000",
    "155501.364000",
    "155503.363000",
    "155505.363000",
    "155507.363000",
    "155509.364000",
    "155511.365000",
    "155513.365000",
    "155515.365000",
    "155517.363000",
    "155519.364000",
    "155521.364000",
    "155523.363000",
    "155525.364000",
    "155527.365000",
    "155529.365000",
    "155531.364000",
    "155533.364000",
    "155535.364000",
    "155537.363000",
    "155539.364000",
    "155541.363000",
    "155543.364000",
    "155545.364000",
    "155547.364000",
    "155549.364000",
    "155551.363000",
    "155553.363000",
    "155555.364000",
    "155557.364000",
    "155559.364000",
    "155601.364000",
    "155603.364000",
    "155605.364000",
    "155607.365000",
    "155609.363000",
    "155611.363000",
    "155613.363000",
    "155615.363000",
    "155617.364000",
    "155619.365000",
    "155621.373000",
    "155623.365000",
    "155625.364000",
    "155627.364000",
    "155629.363000",
    "155631.363000",
    "155633.363000",
    "155635.364000",
    "155637.364000",
    "155639.364000",
    "155641.364000",
    "155643.364000",
    "155645.363000",
    "155647.363000",
    "155649.364000",
    "155651.364000",
    "155653.364000",
    "155655.365000",
    "155657.364000",
    "155659.364000",
    "155701.364000",
    "155703.364000",
    "155705.364000",
    "155707.364000",
    "155709.364000",
    "155711.364000",
    "155713.365000",
    "155715.365000",
    "155717.364000",
    "155719.363000",
    "155721.364000",
    "155723.363000",
    "155725.364000",
    "155727.364000",
    "155729.865000",
    "155731.365000",
    "155733.365000",
    "155735.364000",
    "155737.364000",
    "155739.363000",
    "155741.364000",
    "155743.364000",
    "155745.364000",
    "155747.365000",
    "155749.365000",
    "155751.365000",
    "155753.270000"
   ],
   "InstanceCreationTime": [
    "154923.869000",
    "154925.364000",
    "154927.363000",
    "154929.364000",
    "154931.363000",
    "154933.364000",
    "154935.364000",
    "154937.364000",
    "154939.365000",
    "154941.365000",
    "154943.363000",
    "154945.364000",
    "154947.363000",
    "154949.363000",
    "154951.363000",
    "154953.364000",
    "154955.365000",
    "154957.365000",
    "154959.364000",
    "155001.363000",
    "155003.363000",
    "155005.363000",
    "155007.364000",
    "155009.364000",
    "155011.363000",
    "155013.364000",
    "155015.364000",
    "155017.364000",
    "155019.363000",
    "155021.364000",
    "155023.364000",
    "155025.363000",
    "155027.363000",
    "155029.363000",
    "155031.365000",
    "155033.364000",
    "155035.364000",
    "155037.363000",
    "155039.363000",
    "155041.363000",
    "155043.364000",
    "155045.364000",
    "155047.364000",
    "155049.365000",
    "155051.364000",
    "155053.363000",
    "155055.363000",
    "155057.363000",
    "155059.364000",
    "155101.364000",
    "155103.364000",
    "155105.365000",
    "155107.364000",
    "155109.364000",
    "155111.364000",
    "155113.363000",
    "155115.363000",
    "155117.363000",
    "155119.363000",
    "155121.363000",
    "155123.364000",
    "155125.364000",
    "155127.364000",
    "155129.364000",
    "155131.364000",
    "155133.363000",
    "155135.363000",
    "155137.363000",
    "155139.365000",
    "155141.364000",
    "155143.364000",
    "155145.364000",
    "155147.363000",
    "155149.364000",
    "155151.364000",
    "155153.364000",
    "155155.364000",
    "155157.365000",
    "155159.364000",
    "155201.365000",
    "155203.363000",
    "155205.363000",
    "155207.364000",
    "155209.363000",
    "155211.363000",
    "155213.364000",
    "155215.364000",
    "155217.364000",
    "155219.364000",
    "155221.364000",
    "155223.363000",
    "155225.364000",
    "155227.363000",
    "155229.364000",
    "155231.363000",
    "155233.364000",
    "155235.364000",
    "155237.364000",
    "155239.364000",
    "155241.363000",
    "155243.364000",
    "155245.364000",
    "155247.364000",
    "155249.365000",
    "155251.364000",
    "155253.364000",
    "155255.365000",
    "155257.363000",
    "155259.363000",
    "155301.363000",
    "155303.364000",
    "155305.363000",
    "155307.365000",
    "155309.365000",
    "155311.365000",
    "155313.364000",
    "155315.364000",
    "155317.364000",
    "155319.364000",
    "155321.363000",
    "155323.363000",
    "155325.364000",
    "155327.365000",
    "155329.365000",
    "155331.364000",
    "155333.364000",
    "155335.363000",
    "155337.364000",
    "155339.364000",
    "155341.364000",
    "155343.365000",
    "155345.365000",
    "155347.364000",
    "155349.364000",
    "155351.364000",
    "155353.364000",
    "155355.364000",
    "155357.364000",
    "155359.364000",
    "155401.364000",
    "155403.364000",
    "155405.364000",
    "155407.363000",
    "155409.363000",
    "155411.364000",
    "155413.364000",
    "155415.363000",
    "155417.364000",
    "155419.365000",
    "155421.365000",
    "155423.363000",
    "155425.363000",
    "155427.363000",
    "155429.364000",
    "155431.363000",
    "155433.363000",
    "155435.364000",
    "155437.365000",
    "155439.365000",
    "155441.364000",
    "155443.364000",
    "155445.364000",
    "155447.364000",
    "155449.363000",
    "155451.364000",
    "155453.365000",
    "155455.365000",
    "155457.365000",
    "155459.363000",
    "155501.364000",
    "155503.363000",
    "155505.363000",
    "155507.363000",
    "155509.364000",
    "155511.365000",
    "155513.365000",
    "155515.365000",
    "155517.363000",
    "155519.364000",
    "155521.364000",
    "155523.363000",
    "155525.364000",
    "155527.365000",
    "155529.365000",
    "155531.364000",
    "155533.364000",
    "155535.364000",
    "155537.363000",
    "155539.364000",
    "155541.363000",
    "155543.364000",
    "155545.364000",
    "155547.364000",
    "155549.364000",
    "155551.363000",
    "155553.363000",
    "155555.364000",
    "155557.364000",
    "155559.364000",
    "155601.364000",
    "155603.364000",
    "155605.364000",
    "155607.365000",
    "155609.363000",
    "155611.363000",
    "155613.363000",
    "155615.363000",
    "155617.364000",
    "155619.365000",
    "155621.373000",
    "155623.365000",
    "155625.364000",
    "155627.364000",
    "155629.363000",
    "155631.363000",
    "155633.363000",
    "155635.364000",
    "155637.364000",
    "155639.364000",
    "155641.364000",
    "155643.364000",
    "155645.363000",
    "155647.363000",
    "155649.364000",
    "155651.364000",
    "155653.364000",
    "155655.365000",
    "155657.364000",
    "155659.364000",
    "155701.364000",
    "155703.364000",
    "155705.364000",
    "155707.364000",
    "155709.364000",
    "155711.364000",
    "155713.365000",
    "155715.365000",
    "155717.364000",
    "155719.363000",
    "155721.364000",
    "155723.363000",
    "155725.364000",
    "155727.364000",
    "155729.865000",
    "155731.365000",
    "155733.365000",
    "155735.364000",
    "155737.364000",
    "155739.363000",
    "155741.364000",
    "155743.364000",
    "155745.364000",
    "155747.365000",
    "155749.365000",
    "155751.365000",
    "155753.270000"
   ],
   "InstanceNumber": [
    1,
    2,
    3,
    4,
    5,
    6,
    7,
    8,
    9,
    10,
    11,
    12,
    13,
    14,
    15,
    16,
    17,
    18,
    19,
    20,
    21,
    22,
    23,
    24,
    25,
    26,
    27,
    28,
    29,
    30,
    31,
    32,
    33,
    34,
    35,
    36,
    37,
    38,
    39,
    40,
    41,
    42,
    43,
    44,
    45,
    46,
    47,
    48,
    49,
    50,
    51,
    52,
    53,
    54,
    55,
    56,
    57,
    58,
    59,
    60,
    61,
    62,
    63,
    64,
    65,
    66,
    67,
    68,
    69,
    70,
    71,
    72,
    73,
    74,
    75,
    76,
    77,
    78,
    79,
    80,
    81,
    82,
    83,
    84,
    85,
    86,
    87,
    88,
    89,
    90,
    91,
    92,
    93,
    94,
    95,
    96,
    97,
    98,
    99,
    100,
    101,
    102,
    103,
    104,
    105,
    106,
    107,
    108,
    109,
    110,
    111,
    112,
    113,
    114,
    115,
    116,
    117,
    118,
    119,
    120,
    121,
    122,
    123,
    124,
    125,
    126,
    127,
    128,
    129,
    130,
    131,
    132,
    133,
    134,
    135,
    136,
    137,
    138,
    139,
    140,
    141,
    142,
    143,
    144,
    145,
    146,
    147,
    148,
    149,
    150,
    151,
    152,
    153,
    154,
    155,
    156,
    157,
    158,
    159,
    160,
    161,
    162,
    163,
    164,
    165,
    166,
    167,
    168,
    169,
    170,
    171,
    172,
    173,
    174,
    175,
    176,
    177,
    178,
    179,
    180,
    181,
    182,
    183,
    184,
    185,
    186,
    187,
    188,
    189,
    190,
    191,
    192,
    193,
    194,
    195,
    196,
    197,
    198,
    199,
    200,
    201,
    202,
    203,
    204,
    205,
    206,
    207,
    208,
    209,
    210,
    211,
    212,
    213,
    214,
    215,
    216,
    217,
    218,
    219,
    220,
    221,
    222,
    223,
    224,
    225,
    226,
    227,
    228,
    229,
    230,
    231,
    232,
    233,
    234,
    235,
    236,
    237,
    238,
    239,
    240,
    241,
    242,
    243,
    244,
    245,
    246,
    247,
    248,
    249,
    250,
    251,
    252,
    253,
    254,
    255,
    256
   ],
   "LargestImagePixelValue": [
    3516,
    3563,
    3493,
    3474,
    3508,
    3527,
    3583,
    3442,
    3470,
    3619,
    3428,
    3523,
    3516,
    3649,
    3575,
    3518,
    3587,
    3575,
    3577,
    3523,
    3619,
    3665,
    3496,
    3485,
    3614,
    3557,
    3598,
    3560,
    3599,
    3556,
    3487,
    3491,
    3560,
    3567,
    3519,
    3522,
    3539,
    3572,
    3510,
    3548,
    3541,
    3531,
    3530,
    3543,
    3514,
    3522,
    3567,
    3578,
    3568,
    3529,
    3534,
    3600,
    3577,
    3533,
    3551,
    3526,
    3544,
    3540,
    3551,
    3577,
    3611,
    3601,
    3587,
    3605,
    3615,
    3604,
    3581,
    3589,
    3622,
    3608,
    3625,
    3586,
    3599,
    3607,
    3614,
    3632,
    3630,
    3645,
    3630,
    3600,
    3597,
    3607,
    3589,
    3665,
    3632,
    3640,
    3638,
    3711,
    3645,
    3662,
    3639,
    3638,
    3656,
    3669,
    3638,
    3648,
    3682,
    3614,
    3641,
    3610,
    3643,
    3608,
    3617,
    3673,
    3627,
    3629,
    3655,
    3690,
    3665,
    3672,
    3683,
    3642,
    3661,
    3639,
    3631,
    3653,
    3637,
    3614,
    3646,
    3627,
    3631,
    3653,
    3660,
    3666,
    3663,
    3653,
    3645,
    3656,
    3612,
    3634,
    3617,
    3647,
    3641,
    3655,
    3632,
    3669,
    3653,
    3648,
    3656,
    3706,
    3663,
    3723,
    3712,
    3688,
    3662,
    3665,
    3726,
    3695,
    3677,
    3692,
    3706,
    3710,
    3708,
    3719,
    3752,
    3741,
    3706,
    3703,
    3695,
    3747,
    3708,
    3673,
    3678,
    3667,
    3620,
    3683,
    3647,
    3658,
    3656,
    3659,
    3671,
    3669,
    3616,
    3681,
    3693,
    3636,
    3622,
    3677,
    3691,
    3656,
    3666,
    3679,
    3671,
    3672,
    3672,
    3664,
    3619,
    3680,
    3644,
    3644,
    3674,
    3640,
    3702,
    3693,
    3666,
    3673,
    3666,
    3663,
    3689,
    3652,
    3593,
    3625,
    3646,
    3614,
    3620,
    3624,
    3665,
    3645,
    3666,
    3674,
    3637,
    3647,
    3599,
    3586,
    3642,
    3615,
    3627,
    3618,
    3612,
    3631,
    3685,
    3638,
    3618,
    3617,
    3580,
    3557,
    3607,
    3637,
    3614,
    3578,
    3600,
    3575,
    3615,
    3602,
    3587,
    3601,
    3579,
    3516,
    3571,
    3576,
    3474,
    3501,
    3532,
    3627,
    3517,
    3503,
    3636,
    3511,
    3482,
    3469,
    3492,
    3481,
    3470,
    3489,
    3540,
    3539
   ],
   "WindowCenter": [
    778.0,
    777.0,
    775.0,
    775.0,
    776.0,
    777.0,
    778.0,
    776.0,
    776.0,
    777.0,
    777.0,
    778.0,
    778.0,
    778.0,
    777.0,
    776.0,
    777.0,
    777.0,
    776.0,
    775.0,
    776.0,
    776.0,
    775.0,
    775.0,
    776.0,
    777.0,
    777.0,
    776.0,
    776.0,
    776.0,
    776.0,
    776.0,
    776.0,
    776.0,
    776.0,
    776.0,
    776.0,
    777.0,
    776.0,
    777.0,
    777.0,
    776.0,
    776.0,
    776.0,
    776.0,
    775.0,
    776.0,
    776.0,
    777.0,
    776.0,
    776.0,
    776.0,
    776.0,
    775.0,
    775.0,
    775.0,
    775.0,
    775.0,
    776.0,
    776.0,
    776.0,
    776.0,
    776.0,
    776.0,
    777.0,
    776.0,
    777.0,
    776.0,
    777.0,
    777.0,
    777.0,
    776.0,
    776.0,
    775.0,
    776.0,
    776.0,
    777.0,
    776.0,
    776.0,
    776.0,
    776.0,
    776.0,
    776.0,
    777.0,
    777.0,
    778.0,
    777.0,
    777.0,
    776.0,
    776.0,
    776.0,
    776.0,
    777.0,
    778.0,
    777.0,
    776.0,
    776.0,
    775.0,
    776.0,
    776.0,
    777.0,
    776.0,
    777.0,
    777.0,
    777.0,
    777.0,
    777.0,
    777.0,
    777.0,
    776.0,
    777.0,
    775.0,
    776.0,
    776.0,
    776.0,
    776.0,
    775.0,
    776.0,
    776.0,
    776.0,
    775.0,
    776.0,
    777.0,
    777.0,
    777.0,
