{
 "AcquisitionMatrixPE": 100,
 "AcquisitionNumber": 1,
 "AcquisitionTime": "16:12:12.172500",
 "BandwidthPerPixelPhaseEncode": 18.519,
 "BaseResolution": 100,
 "BodyPartExamined": "BRAIN",
 "ConsistencyInfo": "N4_VE11C_LATEST_20160120",
 "ConversionSoftware": "dcm2niix",
 "ConversionSoftwareVersion": "v1.0.20180622 GCC4.9.2",
 "DerivedVendorReportedEchoSpacing": 0.000539986,
 "DeviceSerialNumber": "166078",
 "DwellTime": 2.1e-06,
 "EchoTime": 0.034,
 "EchoTrainLength": 100,
 "EffectiveEchoSpacing": 0.000539986,
 "FlipAngle": 90,
 "ImageOrientationPatientDICOM": [
  1,
  0,
  0,
  0,
  0.992757,
  -0.120137
 ],
 "ImageType": [
  "ORIGINAL",
  "PRIMARY",
  "M",
  "ND",
  "MOSAIC"
 ],
 "InPlanePhaseEncodingDirectionDICOM": "COL",
 "InstitutionAddress": "Street_StreetNo_Bei_Jing_District_CN_ZIP",
 "InstitutionName": "BeiJing_Normal_University",
 "InstitutionalDepartmentName": "Department",
 "MRAcquisitionType": "2D",
 "MagneticFieldStrength": 3,
 "Manufacturer": "Siemens",
 "ManufacturersModelName": "Prisma",
 "Modality": "MR",
 "MultibandAccelerationFactor": 3,
 "PartialFourier": 1,
 "PatientPosition": "HFS",
 "PercentPhaseFOV": 100,
 "PhaseEncodingDirection": "j-",
 "PhaseEncodingSteps": 100,
 "PhaseResolution": 1,
 "PixelBandwidth": 2380,
 "ProcedureStepDescription": "BNU_P2018_64CH_Zhen.ZongLei",
 "ProtocolName": "bold_100x100_s3_2x2x2_static_256",
 "PulseSequenceDetails": "%SiemensSeq%_ep2d_bold",
 "ReceiveCoilActiveElements": "HC1-7;NC1",
 "ReceiveCoilName": "HeadNeck_64",
 "ReconMatrixPE": 100,
 "RepetitionTime": 2,
 "SAR": 0.0812363,
 "ScanOptions": "FS",
 "ScanningSequence": "EP",
 "SequenceName": "_epfid2d1_100",
 "SequenceVariant": "SK",
 "SeriesDescription": "bold_100x100_s3_2x2x2_static_256",
 "SeriesNumber": 11,
 "ShimSetting": [
  -5469,
  -11521,
  -1267,
  437,
  -7,
  -194,
  -148,
  39
 ],
 "SliceThickness": 2,
 "SliceTiming": [
  1.485,
  0,
  0.99,
  0.0825,
  1.0725,
  0.165,
  1.155,
  0.2475,
  1.2375,
  0.33,
  1.32,
  0.4125,
  1.4025,
  0.5775,
  1.5675,
  0.66,
  1.65,
  0.7425,
  1.7325,
  0.825,
  1.815,
  0.9075,
  1.8975,
  0.495,
  1.485,
  0,
  0.99,
  0.0825,
  1.0725,
  0.165,
  1.155,
  0.2475,
  1.2375,
  0.33,
  1.32,
  0.4125,
  1.4025,
  0.5775,
  1.5675,
  0.66,
  1.65,
  0.7425,
  1.7325,
  0.825,
  1.815,
  0.9075,
  1.8975,
  0.495,
  1.485,
  0,
  0.99,
  0.0825,
  1.0725,
  0.165,
  1.155,
  0.2475,
  1.2375,
  0.33,
  1.32,
  0.4125,
  1.4025,
  0.5775,
  1.5675,
  0.66,
  1.65,
  0.7425,
  1.7325,
  0.825,
  1.815,
  0.9075,
  1.8975,
  0.495
 ],
 "SoftwareVersions": "syngo_MR_E11",
 "SpacingBetweenSlices": 2,
 "StationName": "AWP166078",
 "TaskName": "imagenet",
 "TotalReadoutTime": 0.0534586,
 "TxRefAmp": 211.566,
 "dcmmeta_affine": [
  [
   -2.0,
   0.0,
   0.0,
   106.0722885131836
  ],
  [
   0.0,
   1.9855146408081055,
   -0.24027368426322937,
   -89.5556869506836
  ],
  [
   0.0,
   0.24027368426322937,
   1.9855146408081055,
   -63.77243423461914
  ],
  [
   0.0,
   0.0,
   0.0,
   1.0
  ]
 ],
 "dcmmeta_reorient_transform": [
  [
   0.0,
   -1.0,
   0.0,
   99.0
  ],
  [
   1.0,
   0.0,
   0.0,
   0.0
  ],
  [
   0.0,
   0.0,
   1.0,
   0.0
  ],
  [
   0.0,
   0.0,
   0.0,
   1.0
  ]
 ],
 "dcmmeta_shape": [
  100,
  100,
  72,
  256
 ],
 "dcmmeta_slice_dim": 2,
 "dcmmeta_version": 0.6,
 "global": {
  "const": {
   "AcquisitionMatrix": [
    100,
    0,
    0,
    100
   ],
   "AngioFlag": "N",
   "BitsAllocated": 16,
   "BitsStored": 12,
   "BodyPartExamined": "BRAIN",
   "Columns": 900,
   "EchoNumbers": 1,
   "EchoTime": 34.0,
   "EchoTrainLength": 100,
   "FlipAngle": 90.0,
   "HighBit": 11,
   "ImageOrientationPatient": [
    1.0,
    0.0,
    0.0,
    0.0,
    0.99275734119381,
    -0.1201368449136
   ],
   "ImagePositionPatient": [
    -906.07228899002,
    -901.21614181488,
    56.124136984749
   ],
   "ImageType": [
    "ORIGINAL",
    "PRIMARY",
    "M",
    "ND",
    "MOSAIC"
   ],
   "ImagedNucleus": "1H",
   "ImagingFrequency": 123.257767,
   "InPlanePhaseEncodingDirection": "COL",
   "MRAcquisitionType": "2D",
   "MagneticFieldStrength": 3.0,
   "Manufacturer": "SIEMENS",
   "ManufacturerModelName": "Prisma",
   "Modality": "MR",
   "NumberOfAverages": 1.0,
   "NumberOfPhaseEncodingSteps": 100,
   "PercentPhaseFieldOfView": 100.0,
   "PercentSampling": 100.0,
   "PerformedProcedureStepStartTime": "150633.316000",
   "PhotometricInterpretation": "MONOCHROME2",
   "PixelBandwidth": 2380.0,
   "PixelRepresentation": 0,
   "PixelSpacing": [
    2.0,
    2.0
   ],
   "ProtocolName": "bold_100x100_s3_2x2x2_static_256",
   "RepetitionTime": 2000.0,
   "Rows": 900,
   "SAR": 0.08123632501449,
   "SamplesPerPixel": 1,
   "ScanOptions": "FS",
   "ScanningSequence": "EP",
   "SequenceName": "*epfid2d1_100",
   "SequenceVariant": "SK",
   "SeriesDescription": "bold_100x100_s3_2x2x2_static_256",
   "SeriesNumber": 11,
   "SeriesTime": "161214.977000",
   "SliceLocation": -52.551614853079,
   "SliceThickness": 2.0,
   "SmallestImagePixelValue": 0,
   "SoftwareVersions": "syngo MR E11",
   "SpacingBetweenSlices": 1.9999999963933,
   "SpecificCharacterSet": "ISO_IR 100",
   "StudyID": "1",
   "StudyTime": "150633.216000",
   "TransmitCoilName": "Body",
   "VariableFlipAngleFlag": "N",
   "WindowCenterWidthExplanation": "Algo1",
   "dBdt": 0.0
  },
  "slices": {}
 },
 "time": {
  "samples": {
   "AcquisitionNumber": [
    1,
    2,
    3,
    4,
    5,
    6,
    7,
    8,
    9,
    10,
    11,
    12,
    13,
    14,
    15,
    16,
    17,
    18,
    19,
    20,
    21,
    22,
    23,
    24,
    25,
    26,
    27,
    28,
    29,
    30,
    31,
    32,
    33,
    34,
    35,
    36,
    37,
    38,
    39,
    40,
    41,
    42,
    43,
    44,
    45,
    46,
    47,
    48,
    49,
    50,
    51,
    52,
    53,
    54,
    55,
    56,
    57,
    58,
    59,
    60,
    61,
    62,
    63,
    64,
    65,
    66,
    67,
    68,
    69,
    70,
    71,
    72,
    73,
    74,
    75,
    76,
    77,
    78,
    79,
    80,
    81,
    82,
    83,
    84,
    85,
    86,
    87,
    88,
    89,
    90,
    91,
    92,
    93,
    94,
    95,
    96,
    97,
    98,
    99,
    100,
    101,
    102,
    103,
    104,
    105,
    106,
    107,
    108,
    109,
    110,
    111,
    112,
    113,
    114,
    115,
    116,
    117,
    118,
    119,
    120,
    121,
    122,
    123,
    124,
    125,
    126,
    127,
    128,
    129,
    130,
    131,
    132,
    133,
    134,
    135,
    136,
    137,
    138,
    139,
    140,
    141,
    142,
    143,
    144,
    145,
    146,
    147,
    148,
    149,
    150,
    151,
    152,
    153,
    154,
    155,
    156,
    157,
    158,
    159,
    160,
    161,
    162,
    163,
    164,
    165,
    166,
    167,
    168,
    169,
    170,
    171,
    172,
    173,
    174,
    175,
    176,
    177,
    178,
    179,
    180,
    181,
    182,
    183,
    184,
    185,
    186,
    187,
    188,
    189,
    190,
    191,
    192,
    193,
    194,
    195,
    196,
    197,
    198,
    199,
    200,
    201,
    202,
    203,
    204,
    205,
    206,
    207,
    208,
    209,
    210,
    211,
    212,
    213,
    214,
    215,
    216,
    217,
    218,
    219,
    220,
    221,
    222,
    223,
    224,
    225,
    226,
    227,
    228,
    229,
    230,
    231,
    232,
    233,
    234,
    235,
    236,
    237,
    238,
    239,
    240,
    241,
    242,
    243,
    244,
    245,
    246,
    247,
    248,
    249,
    250,
    251,
    252,
    253,
    254,
    255,
    256
   ],
   "AcquisitionTime": [
    "161212.172500",
    "161214.172500",
    "161216.172500",
    "161218.172500",
    "161220.172500",
    "161222.172500",
    "161224.172500",
    "161226.172500",
    "161228.172500",
    "161230.172500",
    "161232.172500",
    "161234.172500",
    "161236.172500",
    "161238.172500",
    "161240.172500",
    "161242.172500",
    "161244.172500",
    "161246.172500",
    "161248.172500",
    "161250.172500",
    "161252.172500",
    "161254.172500",
    "161256.172500",
    "161258.172500",
    "161300.172500",
    "161302.172500",
    "161304.172500",
    "161306.172500",
    "161308.172500",
    "161310.172500",
    "161312.172500",
    "161314.172500",
    "161316.172500",
    "161318.172500",
    "161320.172500",
    "161322.172500",
    "161324.172500",
    "161326.172500",
    "161328.172500",
    "161330.172500",
    "161332.172500",
    "161334.172500",
    "161336.172500",
    "161338.172500",
    "161340.172500",
    "161342.172500",
    "161344.172500",
    "161346.172500",
    "161348.172500",
    "161350.172500",
    "161352.172500",
    "161354.172500",
    "161356.172500",
    "161358.172500",
    "161400.172500",
    "161402.172500",
    "161404.172500",
    "161406.172500",
    "161408.172500",
    "161410.172500",
    "161412.172500",
    "161414.172500",
    "161416.172500",
    "161418.172500",
    "161420.172500",
    "161422.172500",
    "161424.172500",
    "161426.172500",
    "161428.172500",
    "161430.172500",
    "161432.172500",
    "161434.172500",
    "161436.172500",
    "161438.172500",
    "161440.172500",
    "161442.172500",
    "161444.172500",
    "161446.172500",
    "161448.172500",
    "161450.172500",
    "161452.172500",
    "161454.172500",
    "161456.172500",
    "161458.172500",
    "161500.172500",
    "161502.172500",
    "161504.172500",
    "161506.172500",
    "161508.172500",
    "161510.172500",
    "161512.172500",
    "161514.172500",
    "161516.172500",
    "161518.172500",
    "161520.172500",
    "161522.172500",
    "161524.172500",
    "161526.172500",
    "161528.172500",
    "161530.172500",
    "161532.172500",
    "161534.172500",
    "161536.172500",
    "161538.172500",
    "161540.172500",
    "161542.172500",
    "161544.172500",
    "161546.172500",
    "161548.172500",
    "161550.172500",
    "161552.172500",
    "161554.172500",
    "161556.172500",
    "161558.172500",
    "161600.172500",
    "161602.172500",
    "161604.172500",
    "161606.172500",
    "161608.172500",
    "161610.172500",
    "161612.172500",
    "161614.172500",
    "161616.172500",
    "161618.172500",
    "161620.172500",
    "161622.172500",
    "161624.172500",
    "161626.172500",
    "161628.172500",
    "161630.172500",
    "161632.172500",
    "161634.172500",
    "161636.172500",
    "161638.172500",
    "161640.172500",
    "161642.172500",
    "161644.172500",
    "161646.172500",
    "161648.172500",
    "161650.172500",
    "161652.172500",
    "161654.172500",
    "161656.172500",
    "161658.172500",
    "161700.172500",
    "161702.172500",
    "161704.172500",
    "161706.172500",
    "161708.172500",
    "161710.172500",
    "161712.172500",
    "161714.172500",
    "161716.172500",
    "161718.172500",
    "161720.172500",
    "161722.172500",
    "161724.172500",
    "161726.172500",
    "161728.172500",
    "161730.172500",
    "161732.172500",
    "161734.172500",
    "161736.172500",
    "161738.172500",
    "161740.172500",
    "161742.172500",
    "161744.172500",
    "161746.172500",
    "161748.172500",
    "161750.172500",
    "161752.172500",
    "161754.172500",
    "161756.172500",
    "161758.172500",
    "161800.172500",
    "161802.172500",
    "161804.172500",
    "161806.172500",
    "161808.172500",
    "161810.172500",
    "161812.172500",
    "161814.172500",
    "161816.172500",
    "161818.172500",
    "161820.172500",
    "161822.172500",
    "161824.172500",
    "161826.172500",
    "161828.172500",
    "161830.172500",
    "161832.172500",
    "161834.172500",
    "161836.172500",
    "161838.172500",
    "161840.172500",
    "161842.172500",
    "161844.172500",
    "161846.172500",
    "161848.172500",
    "161850.172500",
    "161852.172500",
    "161854.172500",
    "161856.172500",
    "161858.172500",
    "161900.172500",
    "161902.172500",
    "161904.172500",
    "161906.172500",
    "161908.172500",
    "161910.172500",
    "161912.172500",
    "161914.172500",
    "161916.172500",
    "161918.172500",
    "161920.172500",
    "161922.172500",
    "161924.172500",
    "161926.172500",
    "161928.172500",
    "161930.172500",
    "161932.172500",
    "161934.172500",
    "161936.172500",
    "161938.172500",
    "161940.172500",
    "161942.172500",
    "161944.172500",
    "161946.172500",
    "161948.172500",
    "161950.172500",
    "161952.172500",
    "161954.172500",
    "161956.172500",
    "161958.172500",
    "162000.172500",
    "162002.172500",
    "162004.172500",
    "162006.172500",
    "162008.172500",
    "162010.172500",
    "162012.172500",
    "162014.172500",
    "162016.172500",
    "162018.172500",
    "162020.172500",
    "162022.172500",
    "162024.172500",
    "162026.172500",
    "162028.172500",
    "162030.172500",
    "162032.172500",
    "162034.172500",
    "162036.172500",
    "162038.172500",
    "162040.172500",
    "162042.172500"
   ],
   "ContentTime": [
    "161214.981000",
    "161216.477000",
    "161218.477000",
    "161220.477000",
    "161222.478000",
    "161224.477000",
    "161226.476000",
    "161228.477000",
    "161230.477000",
    "161232.477000",
    "161234.477000",
    "161236.476000",
    "161238.477000",
    "161240.478000",
    "161242.476000",
    "161244.476000",
    "161246.477000",
    "161248.476000",
    "161250.476000",
    "161252.477000",
    "161254.476000",
    "161256.478000",
    "161258.477000",
    "161300.477000",
    "161302.477000",
    "161304.476000",
    "161306.476000",
    "161308.476000",
    "161310.476000",
    "161312.477000",
    "161314.478000",
    "161316.477000",
    "161318.476000",
    "161320.476000",
    "161322.477000",
    "161324.477000",
    "161326.477000",
    "161328.476000",
    "161330.477000",
    "161332.478000",
    "161334.478000",
    "161336.476000",
    "161338.477000",
    "161340.476000",
    "161342.477000",
    "161344.477000",
    "161346.476000",
    "161348.477000",
    "161350.477000",
    "161352.476000",
    "161354.476000",
    "161356.476000",
    "161358.477000",
    "161400.477000",
    "161402.477000",
    "161404.476000",
    "161406.478000",
    "161408.478000",
    "161410.477000",
    "161412.477000",
    "161414.476000",
    "161416.476000",
    "161418.476000",
    "161420.476000",
    "161422.476000",
    "161424.478000",
    "161426.477000",
    "161428.476000",
    "161430.477000",
    "161432.476000",
    "161434.476000",
    "161436.476000",
    "161438.476000",
    "161440.476000",
    "161442.478000",
    "161444.477000",
    "161446.477000",
    "161448.477000",
    "161450.476000",
    "161452.477000",
    "161454.476000",
    "161456.477000",
    "161458.477000",
    "161500.477000",
    "161502.477000",
    "161504.477000",
    "161506.476000",
    "161508.477000",
    "161510.477000",
    "161512.477000",
    "161514.477000",
    "161516.478000",
    "161518.477000",
    "161520.476000",
    "161522.476000",
    "161524.477000",
    "161526.477000",
    "161528.477000",
    "161530.476000",
    "161532.477000",
    "161534.478000",
    "161536.478000",
    "161538.477000",
    "161540.477000",
    "161542.477000",
    "161544.477000",
    "161546.476000",
    "161548.476000",
    "161550.476000",
    "161552.477000",
    "161554.478000",
    "161556.477000",
    "161558.476000",
    "161600.476000",
    "161602.476000",
    "161604.477000",
    "161606.477000",
    "161608.478000",
    "161610.478000",
    "161612.476000",
    "161614.476000",
    "161616.477000",
    "161618.476000",
    "161620.476000",
    "161622.476000",
    "161624.477000",
    "161626.478000",
    "161628.477000",
    "161630.476000",
    "161632.476000",
    "161634.476000",
    "161636.477000",
    "161638.477000",
    "161640.477000",
    "161642.476000",
    "161644.477000",
    "161646.477000",
    "161648.478000",
    "161650.476000",
    "161652.476000",
    "161654.476000",
    "161656.477000",
    "161658.477000",
    "161700.492000",
    "161702.477000",
    "161704.477000",
    "161706.477000",
    "161708.477000",
    "161710.477000",
    "161712.476000",
    "161714.476000",
    "161716.477000",
    "161718.478000",
    "161720.478000",
    "161722.477000",
    "161724.476000",
    "161726.477000",
    "161728.477000",
    "161730.477000",
    "161732.476000",
    "161734.476000",
    "161736.478000",
    "161738.478000",
    "161740.477000",
    "161742.476000",
    "161744.477000",
    "161746.476000",
    "161748.477000",
    "161750.476000",
    "161752.477000",
    "161754.477000",
    "161756.478000",
    "161758.477000",
    "161800.476000",
    "161802.477000",
    "161804.476000",
    "161806.476000",
    "161808.477000",
    "161810.478000",
    "161812.478000",
    "161814.477000",
    "161816.477000",
    "161818.477000",
    "161820.476000",
    "161822.476000",
    "161824.477000",
    "161826.476000",
    "161828.478000",
    "161830.478000",
    "161832.477000",
    "161834.477000",
    "161836.476000",
    "161838.477000",
    "161840.477000",
    "161842.477000",
    "161844.477000",
    "161846.478000",
    "161848.478000",
    "161850.476000",
    "161852.477000",
    "161854.477000",
    "161856.477000",
    "161858.476000",
    "161900.477000",
    "161902.477000",
    "161904.477000",
    "161906.477000",
    "161908.477000",
    "161910.477000",
    "161912.477000",
    "161914.477000",
    "161916.477000",
    "161918.477000",
    "161920.477000",
    "161922.477000",
    "161924.478000",
    "161926.477000",
    "161928.477000",
    "161930.477000",
    "161932.476000",
    "161934.476000",
    "161936.477000",
    "161938.478000",
    "161940.477000",
    "161942.477000",
    "161944.477000",
    "161946.477000",
    "161948.476000",
    "161950.477000",
    "161952.477000",
    "161954.476000",
    "161956.478000",
    "161958.478000",
    "162000.476000",
    "162002.477000",
    "162004.477000",
    "162006.476000",
    "162008.477000",
    "162010.477000",
    "162012.477000",
    "162014.478000",
    "162016.478000",
    "162018.476000",
    "162020.477000",
    "162022.477000",
    "162024.476000",
    "162026.477000",
    "162028.477000",
    "162030.477000",
    "162032.477000",
    "162034.477000",
    "162036.477000",
    "162038.477000",
    "162040.477000",
    "162042.477000",
    "162044.108000"
   ],
   "InstanceCreationTime": [
    "161214.981000",
    "161216.477000",
    "161218.477000",
    "161220.477000",
    "161222.478000",
    "161224.477000",
    "161226.476000",
    "161228.477000",
    "161230.477000",
    "161232.477000",
    "161234.477000",
    "161236.476000",
    "161238.477000",
    "161240.478000",
    "161242.476000",
    "161244.476000",
    "161246.477000",
    "161248.476000",
    "161250.476000",
    "161252.477000",
    "161254.476000",
    "161256.478000",
    "161258.477000",
    "161300.477000",
    "161302.477000",
    "161304.476000",
    "161306.476000",
    "161308.476000",
    "161310.476000",
    "161312.477000",
    "161314.478000",
    "161316.477000",
    "161318.476000",
    "161320.476000",
    "161322.477000",
    "161324.477000",
    "161326.477000",
    "161328.476000",
    "161330.477000",
    "161332.478000",
    "161334.478000",
    "161336.476000",
    "161338.477000",
    "161340.476000",
    "161342.477000",
    "161344.477000",
    "161346.476000",
    "161348.477000",
    "161350.477000",
    "161352.476000",
    "161354.476000",
    "161356.476000",
    "161358.477000",
    "161400.477000",
    "161402.477000",
    "161404.476000",
    "161406.478000",
    "161408.478000",
    "161410.477000",
    "161412.477000",
    "161414.476000",
    "161416.476000",
    "161418.476000",
    "161420.476000",
    "161422.476000",
    "161424.478000",
    "161426.477000",
    "161428.476000",
    "161430.477000",
    "161432.476000",
    "161434.476000",
    "161436.476000",
    "161438.476000",
    "161440.476000",
    "161442.478000",
    "161444.477000",
    "161446.477000",
    "161448.477000",
    "161450.476000",
    "161452.477000",
    "161454.476000",
    "161456.477000",
    "161458.477000",
    "161500.477000",
    "161502.477000",
    "161504.477000",
    "161506.476000",
    "161508.477000",
    "161510.477000",
    "161512.477000",
    "161514.477000",
    "161516.478000",
    "161518.477000",
    "161520.476000",
    "161522.476000",
    "161524.477000",
    "161526.477000",
    "161528.477000",
    "161530.476000",
    "161532.477000",
    "161534.478000",
    "161536.478000",
    "161538.477000",
    "161540.477000",
    "161542.477000",
    "161544.477000",
    "161546.476000",
    "161548.476000",
    "161550.476000",
    "161552.477000",
    "161554.478000",
    "161556.477000",
    "161558.476000",
    "161600.476000",
    "161602.476000",
    "161604.477000",
    "161606.477000",
    "161608.478000",
    "161610.478000",
    "161612.476000",
    "161614.476000",
    "161616.477000",
    "161618.476000",
    "161620.476000",
    "161622.476000",
    "161624.477000",
    "161626.478000",
    "161628.477000",
    "161630.476000",
    "161632.476000",
    "161634.476000",
    "161636.477000",
    "161638.477000",
    "161640.477000",
    "161642.476000",
    "161644.477000",
    "161646.477000",
    "161648.478000",
    "161650.476000",
    "161652.476000",
    "161654.476000",
    "161656.477000",
    "161658.477000",
    "161700.492000",
    "161702.477000",
    "161704.477000",
    "161706.477000",
    "161708.477000",
    "161710.477000",
    "161712.476000",
    "161714.476000",
    "161716.477000",
    "161718.478000",
    "161720.478000",
    "161722.477000",
    "161724.476000",
    "161726.477000",
    "161728.477000",
    "161730.477000",
    "161732.476000",
    "161734.476000",
    "161736.478000",
    "161738.478000",
    "161740.477000",
    "161742.476000",
    "161744.477000",
    "161746.476000",
    "161748.477000",
    "161750.476000",
    "161752.477000",
    "161754.477000",
    "161756.478000",
    "161758.477000",
    "161800.476000",
    "161802.477000",
    "161804.476000",
    "161806.476000",
    "161808.477000",
    "161810.478000",
    "161812.478000",
    "161814.477000",
    "161816.477000",
    "161818.477000",
    "161820.476000",
    "161822.476000",
    "161824.477000",
    "161826.476000",
    "161828.478000",
    "161830.478000",
    "161832.477000",
    "161834.477000",
    "161836.476000",
    "161838.477000",
    "161840.477000",
    "161842.477000",
    "161844.477000",
    "161846.478000",
    "161848.478000",
    "161850.476000",
    "161852.477000",
    "161854.477000",
    "161856.477000",
    "161858.476000",
    "161900.477000",
    "161902.477000",
    "161904.477000",
    "161906.477000",
    "161908.477000",
    "161910.477000",
    "161912.477000",
    "161914.477000",
    "161916.477000",
    "161918.477000",
    "161920.477000",
    "161922.477000",
    "161924.478000",
    "161926.477000",
    "161928.477000",
    "161930.477000",
    "161932.476000",
    "161934.476000",
    "161936.477000",
    "161938.478000",
    "161940.477000",
    "161942.477000",
    "161944.477000",
    "161946.477000",
    "161948.476000",
    "161950.477000",
    "161952.477000",
    "161954.476000",
    "161956.478000",
    "161958.478000",
    "162000.476000",
    "162002.477000",
    "162004.477000",
    "162006.476000",
    "162008.477000",
    "162010.477000",
    "162012.477000",
    "162014.478000",
    "162016.478000",
    "162018.476000",
    "162020.477000",
    "162022.477000",
    "162024.476000",
    "162026.477000",
    "162028.477000",
    "162030.477000",
    "162032.477000",
    "162034.477000",
    "162036.477000",
    "162038.477000",
    "162040.477000",
    "162042.477000",
    "162044.108000"
   ],
   "InstanceNumber": [
    1,
    2,
    3,
    4,
    5,
    6,
    7,
    8,
    9,
    10,
    11,
    12,
    13,
    14,
    15,
    16,
    17,
    18,
    19,
    20,
    21,
    22,
    23,
    24,
    25,
    26,
    27,
    28,
    29,
    30,
    31,
    32,
    33,
    34,
    35,
    36,
    37,
    38,
    39,
    40,
    41,
    42,
    43,
    44,
    45,
    46,
    47,
    48,
    49,
    50,
    51,
    52,
    53,
    54,
    55,
    56,
    57,
    58,
    59,
    60,
    61,
    62,
    63,
    64,
    65,
    66,
    67,
    68,
    69,
    70,
    71,
    72,
    73,
    74,
    75,
    76,
    77,
    78,
    79,
    80,
    81,
    82,
    83,
    84,
    85,
    86,
    87,
    88,
    89,
    90,
    91,
    92,
    93,
    94,
    95,
    96,
    97,
    98,
    99,
    100,
    101,
    102,
    103,
    104,
    105,
    106,
    107,
    108,
    109,
    110,
    111,
    112,
    113,
    114,
    115,
    116,
    117,
    118,
    119,
    120,
    121,
    122,
    123,
    124,
    125,
    126,
    127,
    128,
    129,
    130,
    131,
    132,
    133,
    134,
    135,
    136,
    137,
    138,
    139,
    140,
    141,
    142,
    143,
    144,
    145,
    146,
    147,
    148,
    149,
    150,
    151,
    152,
    153,
    154,
    155,
    156,
    157,
    158,
    159,
    160,
    161,
    162,
    163,
    164,
    165,
    166,
    167,
    168,
    169,
    170,
    171,
    172,
    173,
    174,
    175,
    176,
    177,
    178,
    179,
    180,
    181,
    182,
    183,
    184,
    185,
    186,
    187,
    188,
    189,
    190,
    191,
    192,
    193,
    194,
    195,
    196,
    197,
    198,
    199,
    200,
    201,
    202,
    203,
    204,
    205,
    206,
    207,
    208,
    209,
    210,
    211,
    212,
    213,
    214,
    215,
    216,
    217,
    218,
    219,
    220,
    221,
    222,
    223,
    224,
    225,
    226,
    227,
    228,
    229,
    230,
    231,
    232,
    233,
    234,
    235,
    236,
    237,
    238,
    239,
    240,
    241,
    242,
    243,
    244,
    245,
    246,
    247,
    248,
    249,
    250,
    251,
    252,
    253,
    254,
    255,
    256
   ],
   "LargestImagePixelValue": [
    3931,
    3908,
    3903,
    3846,
    3868,
    3846,
    3904,
    3818,
    3866,
    3821,
    3906,
    3880,
    3886,
    3905,
    3894,
    3911,
    3889,
    3910,
    3873,
    3898,
    3921,
    3835,
    3863,
    3911,
    3911,
    3910,
    3911,
    3891,
    3877,
    3885,
    3849,
    3882,
    3851,
    3916,
    3909,
    3940,
    3904,
    3948,
    3982,
    3987,
    3953,
    3927,
    3906,
    3928,
    3900,
    3919,
    3925,
    3972,
    3925,
    3913,
    3905,
    3928,
    3820,
    3924,
    3895,
    3850,
    3872,
    3960,
    3957,
    3918,
    3921,
    3925,
    3895,
    3921,
    3892,
    3898,
    3917,
    3921,
    3909,
    3855,
    3853,
    3892,
    3908,
    3937,
    3893,
    3926,
    3970,
    3951,
    3919,
    3966,
    3941,
    3912,
    3901,
    3968,
    3911,
    3938,
    3887,
    3937,
    3988,
    3946,
    3941,
    4009,
    3938,
    3913,
    3962,
    3948,
    3882,
    3907,
    3970,
    3984,
    3956,
    3922,
    3894,
    3887,
    3869,
    3873,
    3858,
    3894,
    3885,
    3923,
    3894,
    3911,
    3931,
    3994,
    3913,
    3970,
    3955,
    3960,
    3922,
    3948,
    3986,
    3947,
    3976,
    3974,
    3934,
    3929,
    3958,
    3958,
    3977,
    3946,
    3966,
    3937,
    3970,
    3968,
    3979,
    3936,
    3941,
    3911,
    3931,
    3938,
    3885,
    3895,
    3986,
    3964,
    3983,
    3940,
    3954,
    3944,
    3963,
    3949,
    3924,
    3927,
    3958,
    3976,
    3954,
    3925,
    3913,
    3913,
    3935,
    3915,
    3906,
    3908,
    3878,
    3915,
    3928,
    3883,
    3918,
    3957,
    3944,
    3935,
    3953,
    3940,
    3952,
    3947,
    3944,
    3876,
    3952,
    3960,
    3960,
    3912,
    3950,
    3940,
    3930,
    3904,
    3947,
    3886,
    3910,
    3927,
    3973,
    3948,
    3888,
    3943,
    3911,
    3919,
    3846,
    3890,
    3901,
    3936,
    3908,
    3920,
    3940,
    3938,
    3930,
    3963,
    3904,
    3924,
    3905,
    3931,
    3888,
    3899,
    3902,
    3904,
    3927,
    3816,
    3868,
    3820,
    3900,
    3826,
    3902,
    3891,
    3931,
    3923,
    3937,
    3942,
    3897,
    3885,
    3876,
    3911,
    3915,
    3964,
    3931,
    3887,
    3905,
    3862,
    3897,
    3910,
    3908,
    3941,
    3935,
    3921,
    3956,
    3936,
    3886,
    3887,
    3953,
    3892,
    3906,
    3897,
    3950,
    3942,
    3852,
    3882,
    3910,
    3931,
    3858,
    3926
   ],
   "WindowCenter": [
    780.0,
    779.0,
    779.0,
    779.0,
    779.0,
    779.0,
    780.0,
    778.0,
    780.0,
    779.0,
    780.0,
    780.0,
    780.0,
    780.0,
    780.0,
    780.0,
    780.0,
    780.0,
    780.0,
    781.0,
    781.0,
    779.0,
    778.0,
    779.0,
    779.0,
    780.0,
    780.0,
    780.0,
    779.0,
    779.0,
    779.0,
    779.0,
    778.0,
    779.0,
    780.0,
    780.0,
    780.0,
    780.0,
    781.0,
    781.0,
    780.0,
    780.0,
    781.0,
    780.0,
    780.0,
    779.0,
    780.0,
    781.0,
    781.0,
    780.0,
    780.0,
    779.0,
    779.0,
    780.0,
    780.0,
    778.0,
    778.0,
    778.0,
    780.0,
    780.0,
    780.0,
    780.0,
    780.0,
    779.0,
    780.0,
    780.0,
    780.0,
    780.0,
    779.0,
    779.0,
    779.0,
    779.0,
    780.0,
    780.0,
    779.0,
    779.0,
    781.0,
    781.0,
    780.0,
    779.0,
    778.0,
    779.0,
    780.0,
    782.0,
    782.0,
    781.0,
    780.0,
    781.0,
    781.0,
    781.0,
    781.0,
    782.0,
    781.0,
    781.0,
    782.0,
    781.0,
    780.0,
    781.0,
    782.0,
    782.0,
    781.0,
    780.0,
    780.0,
    779.0,
    778.0,
    778.0,
    779.0,
    781.0,
    780.0,
    780.0,
    779.0,
    779.0,
    780.0,
    781.0,
    782.0,
    782.0,
    780.0,
    779.0,
    779.0,
    780.0,
    781.0,
    782.0,
    782.0,
    781.0,
