{
 "AcquisitionMatrixPE": 100,
 "AcquisitionNumber": 1,
 "AcquisitionTime": "16:43:16.137500",
 "BandwidthPerPixelPhaseEncode": 18.519,
 "BaseResolution": 100,
 "BodyPartExamined": "BRAIN",
 "ConsistencyInfo": "N4_VE11C_LATEST_20160120",
 "ConversionSoftware": "dcm2niix",
 "ConversionSoftwareVersion": "v1.0.20180622 GCC4.9.2",
 "DerivedVendorReportedEchoSpacing": 0.000539986,
 "DeviceSerialNumber": "166078",
 "DwellTime": 2.1e-06,
 "EchoTime": 0.034,
 "EchoTrainLength": 100,
 "EffectiveEchoSpacing": 0.000539986,
 "FlipAngle": 90,
 "ImageOrientationPatientDICOM": [
  1,
  0,
  0,
  0,
  0.992757,
  -0.120137
 ],
 "ImageType": [
  "ORIGINAL",
  "PRIMARY",
  "M",
  "ND",
  "MOSAIC"
 ],
 "InPlanePhaseEncodingDirectionDICOM": "COL",
 "InstitutionAddress": "Street_StreetNo_Bei_Jing_District_CN_ZIP",
 "InstitutionName": "BeiJing_Normal_University",
 "InstitutionalDepartmentName": "Department",
 "MRAcquisitionType": "2D",
 "MagneticFieldStrength": 3,
 "Manufacturer": "Siemens",
 "ManufacturersModelName": "Prisma",
 "Modality": "MR",
 "MultibandAccelerationFactor": 3,
 "PartialFourier": 1,
 "PatientPosition": "HFS",
 "PercentPhaseFOV": 100,
 "PhaseEncodingDirection": "j-",
 "PhaseEncodingSteps": 100,
 "PhaseResolution": 1,
 "PixelBandwidth": 2380,
 "ProcedureStepDescription": "BNU_P2018_64CH_Zhen.ZongLei",
 "ProtocolName": "bold_100x100_s3_2x2x2_static_256",
 "PulseSequenceDetails": "%SiemensSeq%_ep2d_bold",
 "ReceiveCoilActiveElements": "HC1-7;NC1",
 "ReceiveCoilName": "HeadNeck_64",
 "ReconMatrixPE": 100,
 "RepetitionTime": 2,
 "SAR": 0.0812363,
 "ScanOptions": "FS",
 "ScanningSequence": "EP",
 "SequenceName": "_epfid2d1_100",
 "SequenceVariant": "SK",
 "SeriesDescription": "bold_100x100_s3_2x2x2_static_256",
 "SeriesNumber": 14,
 "ShimSetting": [
  -5469,
  -11521,
  -1267,
  437,
  -7,
  -194,
  -148,
  39
 ],
 "SliceThickness": 2,
 "SliceTiming": [
  1.485,
  0,
  0.99,
  0.0825,
  1.0725,
  0.165,
  1.155,
  0.2475,
  1.2375,
  0.33,
  1.32,
  0.4125,
  1.4025,
  0.5775,
  1.5675,
  0.66,
  1.65,
  0.7425,
  1.7325,
  0.825,
  1.815,
  0.9075,
  1.8975,
  0.495,
  1.485,
  0,
  0.99,
  0.0825,
  1.0725,
  0.165,
  1.155,
  0.2475,
  1.2375,
  0.33,
  1.32,
  0.4125,
  1.4025,
  0.5775,
  1.5675,
  0.66,
  1.65,
  0.7425,
  1.7325,
  0.825,
  1.815,
  0.9075,
  1.8975,
  0.495,
  1.485,
  0,
  0.99,
  0.0825,
  1.0725,
  0.165,
  1.155,
  0.2475,
  1.2375,
  0.33,
  1.32,
  0.4125,
  1.4025,
  0.5775,
  1.5675,
  0.66,
  1.65,
  0.7425,
  1.7325,
  0.825,
  1.815,
  0.9075,
  1.8975,
  0.495
 ],
 "SoftwareVersions": "syngo_MR_E11",
 "SpacingBetweenSlices": 2,
 "StationName": "AWP166078",
 "TaskName": "imagenet",
 "TotalReadoutTime": 0.0534586,
 "TxRefAmp": 211.566,
 "dcmmeta_affine": [
  [
   -2.0,
   0.0,
   0.0,
   106.0722885131836
  ],
  [
   0.0,
   1.9855146408081055,
   -0.24027368426322937,
   -89.5556869506836
  ],
  [
   0.0,
   0.24027368426322937,
   1.9855146408081055,
   -63.77243423461914
  ],
  [
   0.0,
   0.0,
   0.0,
   1.0
  ]
 ],
 "dcmmeta_reorient_transform": [
  [
   0.0,
   -1.0,
   0.0,
   99.0
  ],
  [
   1.0,
   0.0,
   0.0,
   0.0
  ],
  [
   0.0,
   0.0,
   1.0,
   0.0
  ],
  [
   0.0,
   0.0,
   0.0,
   1.0
  ]
 ],
 "dcmmeta_shape": [
  100,
  100,
  72,
  256
 ],
 "dcmmeta_slice_dim": 2,
 "dcmmeta_version": 0.6,
 "global": {
  "const": {
   "AcquisitionMatrix": [
    100,
    0,
    0,
    100
   ],
   "AngioFlag": "N",
   "BitsAllocated": 16,
   "BitsStored": 12,
   "BodyPartExamined": "BRAIN",
   "Columns": 900,
   "EchoNumbers": 1,
   "EchoTime": 34.0,
   "EchoTrainLength": 100,
   "FlipAngle": 90.0,
   "HighBit": 11,
   "ImageOrientationPatient": [
    1.0,
    0.0,
    0.0,
    0.0,
    0.99275734119381,
    -0.1201368449136
   ],
   "ImagePositionPatient": [
    -906.07228899002,
    -901.21614181488,
    56.124136984749
   ],
   "ImageType": [
    "ORIGINAL",
    "PRIMARY",
    "M",
    "ND",
    "MOSAIC"
   ],
   "ImagedNucleus": "1H",
   "ImagingFrequency": 123.257766,
   "InPlanePhaseEncodingDirection": "COL",
   "MRAcquisitionType": "2D",
   "MagneticFieldStrength": 3.0,
   "Manufacturer": "SIEMENS",
   "ManufacturerModelName": "Prisma",
   "Modality": "MR",
   "NumberOfAverages": 1.0,
   "NumberOfPhaseEncodingSteps": 100,
   "PercentPhaseFieldOfView": 100.0,
   "PercentSampling": 100.0,
   "PerformedProcedureStepStartTime": "150633.316000",
   "PhotometricInterpretation": "MONOCHROME2",
   "PixelBandwidth": 2380.0,
   "PixelRepresentation": 0,
   "PixelSpacing": [
    2.0,
    2.0
   ],
   "ProtocolName": "bold_100x100_s3_2x2x2_static_256",
   "RepetitionTime": 2000.0,
   "Rows": 900,
   "SAR": 0.08123632501449,
   "SamplesPerPixel": 1,
   "ScanOptions": "FS",
   "ScanningSequence": "EP",
   "SequenceName": "*epfid2d1_100",
   "SequenceVariant": "SK",
   "SeriesDescription": "bold_100x100_s3_2x2x2_static_256",
   "SeriesNumber": 14,
   "SeriesTime": "164318.421000",
   "SliceLocation": -52.551614853079,
   "SliceThickness": 2.0,
   "SmallestImagePixelValue": 0,
   "SoftwareVersions": "syngo MR E11",
   "SpacingBetweenSlices": 1.9999999963933,
   "SpecificCharacterSet": "ISO_IR 100",
   "StudyID": "1",
   "StudyTime": "150633.216000",
   "TransmitCoilName": "Body",
   "VariableFlipAngleFlag": "N",
   "WindowCenterWidthExplanation": "Algo1",
   "dBdt": 0.0
  },
  "slices": {}
 },
 "time": {
  "samples": {
   "AcquisitionNumber": [
    1,
    2,
    3,
    4,
    5,
    6,
    7,
    8,
    9,
    10,
    11,
    12,
    13,
    14,
    15,
    16,
    17,
    18,
    19,
    20,
    21,
    22,
    23,
    24,
    25,
    26,
    27,
    28,
    29,
    30,
    31,
    32,
    33,
    34,
    35,
    36,
    37,
    38,
    39,
    40,
    41,
    42,
    43,
    44,
    45,
    46,
    47,
    48,
    49,
    50,
    51,
    52,
    53,
    54,
    55,
    56,
    57,
    58,
    59,
    60,
    61,
    62,
    63,
    64,
    65,
    66,
    67,
    68,
    69,
    70,
    71,
    72,
    73,
    74,
    75,
    76,
    77,
    78,
    79,
    80,
    81,
    82,
    83,
    84,
    85,
    86,
    87,
    88,
    89,
    90,
    91,
    92,
    93,
    94,
    95,
    96,
    97,
    98,
    99,
    100,
    101,
    102,
    103,
    104,
    105,
    106,
    107,
    108,
    109,
    110,
    111,
    112,
    113,
    114,
    115,
    116,
    117,
    118,
    119,
    120,
    121,
    122,
    123,
    124,
    125,
    126,
    127,
    128,
    129,
    130,
    131,
    132,
    133,
    134,
    135,
    136,
    137,
    138,
    139,
    140,
    141,
    142,
    143,
    144,
    145,
    146,
    147,
    148,
    149,
    150,
    151,
    152,
    153,
    154,
    155,
    156,
    157,
    158,
    159,
    160,
    161,
    162,
    163,
    164,
    165,
    166,
    167,
    168,
    169,
    170,
    171,
    172,
    173,
    174,
    175,
    176,
    177,
    178,
    179,
    180,
    181,
    182,
    183,
    184,
    185,
    186,
    187,
    188,
    189,
    190,
    191,
    192,
    193,
    194,
    195,
    196,
    197,
    198,
    199,
    200,
    201,
    202,
    203,
    204,
    205,
    206,
    207,
    208,
    209,
    210,
    211,
    212,
    213,
    214,
    215,
    216,
    217,
    218,
    219,
    220,
    221,
    222,
    223,
    224,
    225,
    226,
    227,
    228,
    229,
    230,
    231,
    232,
    233,
    234,
    235,
    236,
    237,
    238,
    239,
    240,
    241,
    242,
    243,
    244,
    245,
    246,
    247,
    248,
    249,
    250,
    251,
    252,
    253,
    254,
    255,
    256
   ],
   "AcquisitionTime": [
    "164316.137500",
    "164318.137500",
    "164320.137500",
    "164322.137500",
    "164324.137500",
    "164326.137500",
    "164328.137500",
    "164330.137500",
    "164332.137500",
    "164334.137500",
    "164336.137500",
    "164338.137500",
    "164340.137500",
    "164342.137500",
    "164344.137500",
    "164346.137500",
    "164348.137500",
    "164350.137500",
    "164352.137500",
    "164354.137500",
    "164356.137500",
    "164358.137500",
    "164400.137500",
    "164402.137500",
    "164404.137500",
    "164406.137500",
    "164408.137500",
    "164410.137500",
    "164412.137500",
    "164414.137500",
    "164416.137500",
    "164418.137500",
    "164420.137500",
    "164422.137500",
    "164424.137500",
    "164426.137500",
    "164428.137500",
    "164430.137500",
    "164432.137500",
    "164434.137500",
    "164436.137500",
    "164438.137500",
    "164440.137500",
    "164442.137500",
    "164444.137500",
    "164446.137500",
    "164448.137500",
    "164450.137500",
    "164452.137500",
    "164454.137500",
    "164456.137500",
    "164458.137500",
    "164500.137500",
    "164502.137500",
    "164504.137500",
    "164506.137500",
    "164508.137500",
    "164510.137500",
    "164512.137500",
    "164514.137500",
    "164516.137500",
    "164518.137500",
    "164520.137500",
    "164522.137500",
    "164524.137500",
    "164526.137500",
    "164528.137500",
    "164530.137500",
    "164532.137500",
    "164534.137500",
    "164536.137500",
    "164538.137500",
    "164540.137500",
    "164542.137500",
    "164544.137500",
    "164546.137500",
    "164548.137500",
    "164550.137500",
    "164552.137500",
    "164554.137500",
    "164556.137500",
    "164558.137500",
    "164600.137500",
    "164602.137500",
    "164604.137500",
    "164606.137500",
    "164608.137500",
    "164610.137500",
    "164612.137500",
    "164614.137500",
    "164616.137500",
    "164618.137500",
    "164620.137500",
    "164622.137500",
    "164624.137500",
    "164626.137500",
    "164628.137500",
    "164630.137500",
    "164632.137500",
    "164634.137500",
    "164636.137500",
    "164638.137500",
    "164640.137500",
    "164642.137500",
    "164644.137500",
    "164646.137500",
    "164648.137500",
    "164650.137500",
    "164652.137500",
    "164654.137500",
    "164656.137500",
    "164658.137500",
    "164700.137500",
    "164702.137500",
    "164704.137500",
    "164706.137500",
    "164708.137500",
    "164710.137500",
    "164712.137500",
    "164714.137500",
    "164716.137500",
    "164718.137500",
    "164720.137500",
    "164722.137500",
    "164724.137500",
    "164726.137500",
    "164728.137500",
    "164730.137500",
    "164732.137500",
    "164734.137500",
    "164736.137500",
    "164738.137500",
    "164740.137500",
    "164742.137500",
    "164744.137500",
    "164746.137500",
    "164748.137500",
    "164750.137500",
    "164752.137500",
    "164754.137500",
    "164756.137500",
    "164758.137500",
    "164800.137500",
    "164802.137500",
    "164804.137500",
    "164806.137500",
    "164808.137500",
    "164810.137500",
    "164812.137500",
    "164814.137500",
    "164816.137500",
    "164818.137500",
    "164820.137500",
    "164822.137500",
    "164824.137500",
    "164826.137500",
    "164828.137500",
    "164830.137500",
    "164832.137500",
    "164834.137500",
    "164836.137500",
    "164838.137500",
    "164840.137500",
    "164842.137500",
    "164844.137500",
    "164846.137500",
    "164848.137500",
    "164850.137500",
    "164852.137500",
    "164854.137500",
    "164856.137500",
    "164858.137500",
    "164900.137500",
    "164902.137500",
    "164904.137500",
    "164906.137500",
    "164908.137500",
    "164910.137500",
    "164912.137500",
    "164914.137500",
    "164916.137500",
    "164918.137500",
    "164920.137500",
    "164922.137500",
    "164924.137500",
    "164926.137500",
    "164928.137500",
    "164930.137500",
    "164932.137500",
    "164934.137500",
    "164936.137500",
    "164938.137500",
    "164940.137500",
    "164942.137500",
    "164944.137500",
    "164946.137500",
    "164948.137500",
    "164950.137500",
    "164952.137500",
    "164954.137500",
    "164956.137500",
    "164958.137500",
    "165000.137500",
    "165002.137500",
    "165004.137500",
    "165006.137500",
    "165008.137500",
    "165010.137500",
    "165012.137500",
    "165014.137500",
    "165016.137500",
    "165018.137500",
    "165020.137500",
    "165022.137500",
    "165024.137500",
    "165026.137500",
    "165028.137500",
    "165030.137500",
    "165032.137500",
    "165034.137500",
    "165036.137500",
    "165038.137500",
    "165040.137500",
    "165042.137500",
    "165044.137500",
    "165046.137500",
    "165048.137500",
    "165050.137500",
    "165052.137500",
    "165054.137500",
    "165056.137500",
    "165058.137500",
    "165100.137500",
    "165102.137500",
    "165104.137500",
    "165106.137500",
    "165108.137500",
    "165110.137500",
    "165112.137500",
    "165114.137500",
    "165116.137500",
    "165118.137500",
    "165120.137500",
    "165122.137500",
    "165124.137500",
    "165126.137500",
    "165128.137500",
    "165130.137500",
    "165132.137500",
    "165134.137500",
    "165136.137500",
    "165138.137500",
    "165140.137500",
    "165142.137500",
    "165144.137500",
    "165146.137500"
   ],
   "ContentTime": [
    "164318.425000",
    "164319.920000",
    "164321.920000",
    "164323.920000",
    "164325.920000",
    "164327.921000",
    "164329.920000",
    "164331.921000",
    "164333.920000",
    "164335.921000",
    "164337.920000",
    "164339.920000",
    "164341.920000",
    "164343.920000",
    "164345.920000",
    "164347.920000",
    "164349.922000",
    "164351.920000",
    "164353.920000",
    "164355.921000",
    "164357.921000",
    "164359.921000",
    "164401.921000",
    "164403.920000",
    "164405.921000",
    "164407.922000",
    "164409.921000",
    "164411.920000",
    "164413.921000",
    "164415.920000",
    "164417.920000",
    "164419.920000",
    "164421.921000",
    "164423.922000",
    "164425.921000",
    "164427.921000",
    "164429.920000",
    "164431.921000",
    "164433.921000",
    "164435.921000",
    "164437.921000",
    "164439.920000",
    "164441.922000",
    "164443.920000",
    "164445.920000",
    "164447.921000",
    "164449.920000",
    "164451.921000",
    "164453.921000",
    "164455.921000",
    "164457.921000",
    "164459.922000",
    "164501.921000",
    "164503.921000",
    "164505.921000",
    "164507.921000",
    "164509.921000",
    "164511.920000",
    "164513.921000",
    "164515.920000",
    "164517.921000",
    "164519.921000",
    "164521.921000",
    "164523.921000",
    "164525.921000",
    "164527.920000",
    "164529.920000",
    "164531.921000",
    "164533.922000",
    "164535.922000",
    "164537.920000",
    "164539.921000",
    "164541.921000",
    "164543.921000",
    "164545.920000",
    "164547.921000",
    "164549.920000",
    "164551.922000",
    "164553.921000",
    "164555.920000",
    "164557.920000",
    "164559.920000",
    "164601.921000",
    "164603.921000",
    "164605.921000",
    "164607.921000",
    "164609.921000",
    "164611.921000",
    "164613.921000",
    "164615.921000",
    "164617.921000",
    "164619.920000",
    "164621.921000",
    "164623.921000",
    "164625.920000",
    "164627.922000",
    "164629.920000",
    "164631.921000",
    "164633.921000",
    "164635.921000",
    "164637.921000",
    "164639.920000",
    "164641.921000",
    "164643.922000",
    "164645.922000",
    "164647.920000",
    "164649.920000",
    "164651.920000",
    "164653.921000",
    "164655.921000",
    "164657.920000",
    "164659.921000",
    "164701.922000",
    "164703.921000",
    "164705.921000",
    "164707.921000",
    "164709.921000",
    "164711.921000",
    "164713.921000",
    "164715.921000",
    "164717.921000",
    "164719.922000",
    "164721.921000",
    "164723.921000",
    "164725.921000",
    "164727.920000",
    "164729.920000",
    "164731.921000",
    "164733.920000",
    "164735.920000",
    "164737.922000",
    "164739.920000",
    "164741.921000",
    "164743.921000",
    "164745.921000",
    "164747.921000",
    "164749.920000",
    "164751.921000",
    "164753.922000",
    "164755.921000",
    "164757.921000",
    "164759.921000",
    "164801.921000",
    "164803.921000",
    "164805.921000",
    "164807.920000",
    "164809.920000",
    "164811.921000",
    "164813.921000",
    "164815.921000",
    "164817.921000",
    "164819.921000",
    "164821.921000",
    "164823.921000",
    "164825.921000",
    "164827.921000",
    "164829.922000",
    "164831.921000",
    "164833.921000",
    "164835.921000",
    "164837.921000",
    "164839.921000",
    "164841.921000",
    "164843.921000",
    "164845.920000",
    "164847.922000",
    "164849.921000",
    "164851.921000",
    "164853.920000",
    "164855.921000",
    "164857.921000",
    "164859.921000",
    "164901.921000",
    "164903.922000",
    "164905.922000",
    "164907.921000",
    "164909.920000",
    "164911.921000",
    "164913.921000",
    "164915.921000",
    "164917.921000",
    "164919.921000",
    "164921.922000",
    "164923.921000",
    "164925.921000",
    "164927.921000",
    "164929.921000",
    "164931.921000",
    "164933.921000",
    "164935.921000",
    "164937.921000",
    "164939.922000",
    "164941.920000",
    "164943.921000",
    "164945.921000",
    "164947.921000",
    "164949.920000",
    "164951.921000",
    "164953.931000",
    "164955.921000",
    "164957.922000",
    "164959.921000",
    "165001.920000",
    "165003.921000",
    "165005.921000",
    "165007.921000",
    "165009.921000",
    "165011.920000",
    "165013.922000",
    "165015.922000",
    "165017.921000",
    "165019.921000",
    "165021.921000",
    "165023.921000",
    "165025.921000",
    "165027.921000",
    "165029.920000",
    "165031.922000",
    "165033.921000",
    "165035.921000",
    "165037.921000",
    "165039.921000",
    "165041.921000",
    "165043.921000",
    "165045.921000",
    "165047.921000",
    "165049.922000",
    "165051.921000",
    "165053.920000",
    "165055.921000",
    "165057.921000",
    "165059.921000",
    "165101.921000",
    "165103.920000",
    "165105.921000",
    "165107.922000",
    "165109.921000",
    "165111.921000",
    "165113.921000",
    "165115.921000",
    "165117.921000",
    "165119.921000",
    "165121.921000",
    "165123.922000",
    "165125.921000",
    "165127.921000",
    "165129.921000",
    "165131.921000",
    "165133.921000",
    "165135.921000",
    "165137.921000",
    "165139.921000",
    "165141.921000",
    "165143.921000",
    "165145.921000",
    "165147.514000"
   ],
   "InstanceCreationTime": [
    "164318.425000",
    "164319.920000",
    "164321.920000",
    "164323.920000",
    "164325.920000",
    "164327.921000",
    "164329.920000",
    "164331.921000",
    "164333.920000",
    "164335.921000",
    "164337.920000",
    "164339.920000",
    "164341.920000",
    "164343.920000",
    "164345.920000",
    "164347.920000",
    "164349.922000",
    "164351.920000",
    "164353.920000",
    "164355.921000",
    "164357.921000",
    "164359.921000",
    "164401.921000",
    "164403.920000",
    "164405.921000",
    "164407.922000",
    "164409.921000",
    "164411.920000",
    "164413.921000",
    "164415.920000",
    "164417.920000",
    "164419.920000",
    "164421.921000",
    "164423.922000",
    "164425.921000",
    "164427.921000",
    "164429.920000",
    "164431.921000",
    "164433.921000",
    "164435.921000",
    "164437.921000",
    "164439.920000",
    "164441.922000",
    "164443.920000",
    "164445.920000",
    "164447.921000",
    "164449.920000",
    "164451.921000",
    "164453.921000",
    "164455.921000",
    "164457.921000",
    "164459.922000",
    "164501.921000",
    "164503.921000",
    "164505.921000",
    "164507.921000",
    "164509.921000",
    "164511.920000",
    "164513.921000",
    "164515.920000",
    "164517.921000",
    "164519.921000",
    "164521.921000",
    "164523.921000",
    "164525.921000",
    "164527.920000",
    "164529.920000",
    "164531.921000",
    "164533.922000",
    "164535.922000",
    "164537.920000",
    "164539.921000",
    "164541.921000",
    "164543.921000",
    "164545.920000",
    "164547.921000",
    "164549.920000",
    "164551.922000",
    "164553.921000",
    "164555.920000",
    "164557.920000",
    "164559.920000",
    "164601.921000",
    "164603.921000",
    "164605.921000",
    "164607.921000",
    "164609.921000",
    "164611.921000",
    "164613.921000",
    "164615.921000",
    "164617.921000",
    "164619.920000",
    "164621.921000",
    "164623.921000",
    "164625.920000",
    "164627.922000",
    "164629.920000",
    "164631.921000",
    "164633.921000",
    "164635.921000",
    "164637.921000",
    "164639.920000",
    "164641.921000",
    "164643.922000",
    "164645.922000",
    "164647.920000",
    "164649.920000",
    "164651.920000",
    "164653.921000",
    "164655.921000",
    "164657.920000",
    "164659.921000",
    "164701.922000",
    "164703.921000",
    "164705.921000",
    "164707.921000",
    "164709.921000",
    "164711.921000",
    "164713.921000",
    "164715.921000",
    "164717.921000",
    "164719.922000",
    "164721.921000",
    "164723.921000",
    "164725.921000",
    "164727.920000",
    "164729.920000",
    "164731.921000",
    "164733.920000",
    "164735.920000",
    "164737.922000",
    "164739.920000",
    "164741.921000",
    "164743.921000",
    "164745.921000",
    "164747.921000",
    "164749.920000",
    "164751.921000",
    "164753.922000",
    "164755.921000",
    "164757.921000",
    "164759.921000",
    "164801.921000",
    "164803.921000",
    "164805.921000",
    "164807.920000",
    "164809.920000",
    "164811.921000",
    "164813.921000",
    "164815.921000",
    "164817.921000",
    "164819.921000",
    "164821.921000",
    "164823.921000",
    "164825.921000",
    "164827.921000",
    "164829.922000",
    "164831.921000",
    "164833.921000",
    "164835.921000",
    "164837.921000",
    "164839.921000",
    "164841.921000",
    "164843.921000",
    "164845.920000",
    "164847.922000",
    "164849.921000",
    "164851.921000",
    "164853.920000",
    "164855.921000",
    "164857.921000",
    "164859.921000",
    "164901.921000",
    "164903.922000",
    "164905.922000",
    "164907.921000",
    "164909.920000",
    "164911.921000",
    "164913.921000",
    "164915.921000",
    "164917.921000",
    "164919.921000",
    "164921.922000",
    "164923.921000",
    "164925.921000",
    "164927.921000",
    "164929.921000",
    "164931.921000",
    "164933.921000",
    "164935.921000",
    "164937.921000",
    "164939.922000",
    "164941.920000",
    "164943.921000",
    "164945.921000",
    "164947.921000",
    "164949.920000",
    "164951.921000",
    "164953.931000",
    "164955.921000",
    "164957.922000",
    "164959.921000",
    "165001.920000",
    "165003.921000",
    "165005.921000",
    "165007.921000",
    "165009.921000",
    "165011.920000",
    "165013.922000",
    "165015.922000",
    "165017.921000",
    "165019.921000",
    "165021.921000",
    "165023.921000",
    "165025.921000",
    "165027.921000",
    "165029.920000",
    "165031.922000",
    "165033.921000",
    "165035.921000",
    "165037.921000",
    "165039.921000",
    "165041.921000",
    "165043.921000",
    "165045.921000",
    "165047.921000",
    "165049.922000",
    "165051.921000",
    "165053.920000",
    "165055.921000",
    "165057.921000",
    "165059.921000",
    "165101.921000",
    "165103.920000",
    "165105.921000",
    "165107.922000",
    "165109.921000",
    "165111.921000",
    "165113.921000",
    "165115.921000",
    "165117.921000",
    "165119.921000",
    "165121.921000",
    "165123.922000",
    "165125.921000",
    "165127.921000",
    "165129.921000",
    "165131.921000",
    "165133.921000",
    "165135.921000",
    "165137.921000",
    "165139.921000",
    "165141.921000",
    "165143.921000",
    "165145.921000",
    "165147.514000"
   ],
   "InstanceNumber": [
    1,
    2,
    3,
    4,
    5,
    6,
    7,
    8,
    9,
    10,
    11,
    12,
    13,
    14,
    15,
    16,
    17,
    18,
    19,
    20,
    21,
    22,
    23,
    24,
    25,
    26,
    27,
    28,
    29,
    30,
    31,
    32,
    33,
    34,
    35,
    36,
    37,
    38,
    39,
    40,
    41,
    42,
    43,
    44,
    45,
    46,
    47,
    48,
    49,
    50,
    51,
    52,
    53,
    54,
    55,
    56,
    57,
    58,
    59,
    60,
    61,
    62,
    63,
    64,
    65,
    66,
    67,
    68,
    69,
    70,
    71,
    72,
    73,
    74,
    75,
    76,
    77,
    78,
    79,
    80,
    81,
    82,
    83,
    84,
    85,
    86,
    87,
    88,
    89,
    90,
    91,
    92,
    93,
    94,
    95,
    96,
    97,
    98,
    99,
    100,
    101,
    102,
    103,
    104,
    105,
    106,
    107,
    108,
    109,
    110,
    111,
    112,
    113,
    114,
    115,
    116,
    117,
    118,
    119,
    120,
    121,
    122,
    123,
    124,
    125,
    126,
    127,
    128,
    129,
    130,
    131,
    132,
    133,
    134,
    135,
    136,
    137,
    138,
    139,
    140,
    141,
    142,
    143,
    144,
    145,
    146,
    147,
    148,
    149,
    150,
    151,
    152,
    153,
    154,
    155,
    156,
    157,
    158,
    159,
    160,
    161,
    162,
    163,
    164,
    165,
    166,
    167,
    168,
    169,
    170,
    171,
    172,
    173,
    174,
    175,
    176,
    177,
    178,
    179,
    180,
    181,
    182,
    183,
    184,
    185,
    186,
    187,
    188,
    189,
    190,
    191,
    192,
    193,
    194,
    195,
    196,
    197,
    198,
    199,
    200,
    201,
    202,
    203,
    204,
    205,
    206,
    207,
    208,
    209,
    210,
    211,
    212,
    213,
    214,
    215,
    216,
    217,
    218,
    219,
    220,
    221,
    222,
    223,
    224,
    225,
    226,
    227,
    228,
    229,
    230,
    231,
    232,
    233,
    234,
    235,
    236,
    237,
    238,
    239,
    240,
    241,
    242,
    243,
    244,
    245,
    246,
    247,
    248,
    249,
    250,
    251,
    252,
    253,
    254,
    255,
    256
   ],
   "LargestImagePixelValue": [
    3542,
    3516,
    3482,
    3471,
    3461,
    3478,
    3479,
    3463,
    3481,
    3466,
    3502,
    3444,
    3457,
    3455,
    3481,
    3417,
    3439,
    3482,
    3447,
    3438,
    3491,
    3445,
    3459,
    3432,
    3449,
    3463,
    3470,
    3477,
    3482,
    3469,
    3427,
    3479,
    3453,
    3443,
    3402,
    3432,
    3421,
    3446,
    3435,
    3460,
    3452,
    3426,
    3443,
    3442,
    3436,
    3414,
    3414,
    3394,
    3424,
    3451,
    3412,
    3409,
    3446,
    3448,
    3405,
    3430,
    3416,
    3406,
    3430,
    3414,
    3442,
    3449,
    3447,
    3421,
    3413,
    3442,
    3439,
    3428,
    3422,
    3403,
    3424,
    3427,
    3425,
    3449,
    3459,
    3415,
    3386,
    3381,
    3430,
    3436,
    3438,
    3409,
    3433,
    3430,
    3406,
    3401,
    3416,
    3402,
    3421,
    3438,
    3404,
    3404,
    3413,
    3407,
    3412,
    3404,
    3421,
    3416,
    3372,
    3392,
    3439,
    3398,
    3414,
    3427,
    3414,
    3403,
    3387,
    3394,
    3399,
    3417,
    3434,
    3405,
    3411,
    3397,
    3404,
    3421,
    3405,
    3397,
    3410,
    3444,
    3451,
    3416,
    3412,
    3399,
    3426,
    3419,
    3427,
    3398,
    3393,
    3379,
    3389,
    3387,
    3426,
    3393,
    3394,
    3437,
    3423,
    3421,
    3395,
    3400,
    3442,
    3412,
    3393,
    3440,
    3414,
    3405,
    3401,
    3416,
    3422,
    3421,
    3422,
    3405,
    3427,
    3430,
    3423,
    3403,
    3408,
    3405,
    3404,
    3404,
    3421,
    3424,
    3419,
    3417,
    3395,
    3417,
    3436,
    3477,
    3454,
    3467,
    3462,
    3416,
    3419,
    3411,
    3397,
    3403,
    3423,
    3426,
    3460,
    3439,
    3439,
    3441,
    3474,
    3396,
    3455,
    3418,
    3432,
    3451,
    3440,
    3459,
    3398,
    3437,
    3428,
    3412,
    3454,
    3405,
    3418,
    3441,
    3420,
    3453,
    3418,
    3435,
    3431,
    3404,
    3448,
    3399,
    3447,
    3405,
    3468,
    3418,
    3422,
    3416,
    3442,
    3440,
    3426,
    3485,
    3413,
    3460,
    3461,
    3437,
    3424,
    3414,
    3431,
    3460,
    3410,
    3432,
    3429,
    3422,
    3429,
    3426,
    3414,
    3452,
    3416,
    3456,
    3402,
    3412,
    3413,
    3433,
    3425,
    3396,
    3433,
    3398,
    3442,
    3403,
    3411,
    3448,
    3424,
    3473,
    3466,
    3432,
    3476,
    3445,
    3442,
    3457,
    3469,
    3463
   ],
   "WindowCenter": [
    782.0,
    783.0,
    781.0,
    780.0,
    779.0,
    780.0,
    781.0,
    781.0,
    781.0,
    780.0,
    780.0,
    780.0,
    781.0,
    780.0,
    779.0,
    778.0,
    779.0,
    779.0,
    779.0,
    779.0,
    779.0,
    778.0,
    779.0,
    779.0,
    779.0,
    779.0,
    779.0,
    780.0,
    780.0,
    780.0,
    779.0,
    780.0,
    779.0,
    779.0,
    778.0,
    778.0,
    778.0,
    778.0,
    779.0,
    778.0,
    778.0,
    779.0,
    779.0,
    780.0,
    779.0,
    779.0,
    780.0,
    780.0,
    780.0,
    780.0,
    780.0,
    780.0,
    781.0,
    781.0,
    781.0,
    780.0,
    779.0,
    779.0,
    780.0,
    780.0,
    781.0,
    781.0,
    781.0,
    781.0,
    781.0,
    781.0,
    780.0,
    779.0,
    779.0,
    780.0,
    781.0,
    781.0,
    781.0,
    780.0,
    780.0,
    781.0,
    781.0,
    780.0,
    780.0,
    779.0,
    779.0,
    779.0,
    780.0,
    779.0,
    779.0,
    780.0,
    780.0,
    780.0,
    780.0,
    779.0,
    781.0,
    780.0,
    779.0,
    778.0,
    779.0,
    779.0,
    779.0,
    779.0,
    779.0,
    779.0,
    780.0,
    779.0,
    780.0,
    780.0,
    780.0,
    780.0,
    781.0,
    781.0,
    782.0,
    781.0,
    781.0,
    780.0,
    781.0,
    782.0,
    782.0,
    781.0,
    780.0,
    781.0,
    784.0,
    784.0,
    782.0,
    780.0,
    779.0,
    779.0,
