{
  "AcquisitionMatrixPE": 100,
  "AcquisitionNumber": 1,
  "AcquisitionTime": "16:22:23.542500",
  "BandwidthPerPixelPhaseEncode": 18.519,
  "BaseResolution": 100,
  "BodyPartExamined": "BRAIN",
  "ConsistencyInfo": "N4_VE11C_LATEST_20160120",
  "ConversionSoftware": "dcm2niix",
  "ConversionSoftwareVersion": "v1.0.20180622 GCC4.9.2",
  "DerivedVendorReportedEchoSpacing": 0.000539986,
  "DeviceSerialNumber": "166078",
  "DwellTime": 2.1e-06,
  "EchoTime": 0.034,
  "EchoTrainLength": 100,
  "EffectiveEchoSpacing": 0.000539986,
  "FlipAngle": 90,
  "ImageOrientationPatientDICOM": [1, 0, 0, 0, 0.992757, -0.120137],
  "ImageType": [
    "ORIGINAL",
    "PRIMARY",
    "M",
    "ND",
    "MOSAIC"
],
  "InPlanePhaseEncodingDirectionDICOM": "COL",
  "InstitutionAddress": "Street_StreetNo_Bei_Jing_District_CN_ZIP",
  "InstitutionName": "BeiJing_Normal_University",
  "InstitutionalDepartmentName": "Department",
  "MRAcquisitionType": "2D",
  "MagneticFieldStrength": 3,
  "Manufacturer": "Siemens",
  "ManufacturersModelName": "Prisma",
  "Modality": "MR",
  "MultibandAccelerationFactor": 3,
  "PartialFourier": 1,
  "PatientPosition": "HFS",
  "PercentPhaseFOV": 100,
  "PhaseEncodingDirection": "j-",
  "PhaseEncodingSteps": 100,
  "PhaseResolution": 1,
  "PixelBandwidth": 2380,
  "ProcedureStepDescription": "BNU_P2018_64CH_Zhen.ZongLei",
  "ProtocolName": "bold_100x100_s3_2x2x2_static_256",
  "PulseSequenceDetails": "%SiemensSeq%_ep2d_bold",
  "ReceiveCoilActiveElements": "HC1-7;NC1",
  "ReceiveCoilName": "HeadNeck_64",
  "ReconMatrixPE": 100,
  "RepetitionTime": 2,
  "SAR": 0.0812363,
  "ScanOptions": "FS",
  "ScanningSequence": "EP",
  "SequenceName": "_epfid2d1_100",
  "SequenceVariant": "SK",
  "SeriesDescription": "bold_100x100_s3_2x2x2_static_256",
  "SeriesNumber": 12,
  "ShimSetting": [-5469, -11521, -1267, 437, -7, -194, -148, 39],
  "SliceThickness": 2,
  "SliceTiming": [1.485, 0, 0.99, 0.0825, 1.0725, 0.165, 1.155, 0.2475, 1.2375, 0.33, 1.32, 0.4125, 1.4025, 0.5775, 1.5675, 0.66, 1.65, 0.7425, 1.7325, 0.825, 1.815, 0.9075, 1.8975, 0.495, 1.485, 0, 0.99, 0.0825, 1.0725, 0.165, 1.155, 0.2475, 1.2375, 0.33, 1.32, 0.4125, 1.4025, 0.5775, 1.5675, 0.66, 1.65, 0.7425, 1.7325, 0.825, 1.815, 0.9075, 1.8975, 0.495, 1.485, 0, 0.99, 0.0825, 1.0725, 0.165, 1.155, 0.2475, 1.2375, 0.33, 1.32, 0.4125, 1.4025, 0.5775, 1.5675, 0.66, 1.65, 0.7425, 1.7325, 0.825, 1.815, 0.9075, 1.8975, 0.495],
  "SoftwareVersions": "syngo_MR_E11",
  "SpacingBetweenSlices": 2,
  "StationName": "AWP166078",
  "TaskName": "naturalvision",
  "TotalReadoutTime": 0.0534586,
  "TxRefAmp": 211.566,
  "dcmmeta_affine": [
    [-2.0, 0.0, 0.0, 106.0722885131836],
    [0.0, 1.9855146408081055, -0.24027368426322937, -89.5556869506836],
    [0.0, 0.24027368426322937, 1.9855146408081055, -63.77243423461914],
    [0.0, 0.0, 0.0, 1.0]
],
  "dcmmeta_reorient_transform": [
    [0.0, -1.0, 0.0, 99.0],
    [1.0, 0.0, 0.0, 0.0],
    [0.0, 0.0, 1.0, 0.0],
    [0.0, 0.0, 0.0, 1.0]
],
  "dcmmeta_shape": [100, 100, 72, 256],
  "dcmmeta_slice_dim": 2,
  "dcmmeta_version": 0.6,
  "global": {
    "const": {
      "AcquisitionMatrix": [100, 0, 0, 100],
      "AngioFlag": "N",
      "BitsAllocated": 16,
      "BitsStored": 12,
      "BodyPartExamined": "BRAIN",
      "Columns": 900,
      "EchoNumbers": 1,
      "EchoTime": 34.0,
      "EchoTrainLength": 100,
      "FlipAngle": 90.0,
      "HighBit": 11,
      "ImageOrientationPatient": [1.0, 0.0, 0.0, 0.0, 0.99275734119381, -0.1201368449136],
      "ImagePositionPatient": [-906.07228899002, -901.21614181488, 56.124136984749],
      "ImageType": [
        "ORIGINAL",
        "PRIMARY",
        "M",
        "ND",
        "MOSAIC"
],
      "ImagedNucleus": "1H",
      "ImagingFrequency": 123.257766,
      "InPlanePhaseEncodingDirection": "COL",
      "MRAcquisitionType": "2D",
      "MagneticFieldStrength": 3.0,
      "Manufacturer": "SIEMENS",
      "ManufacturerModelName": "Prisma",
      "Modality": "MR",
      "NumberOfAverages": 1.0,
      "NumberOfPhaseEncodingSteps": 100,
      "PercentPhaseFieldOfView": 100.0,
      "PercentSampling": 100.0,
      "PerformedProcedureStepStartTime": "150633.316000",
      "PhotometricInterpretation": "MONOCHROME2",
      "PixelBandwidth": 2380.0,
      "PixelRepresentation": 0,
      "PixelSpacing": [2.0, 2.0],
      "ProtocolName": "bold_100x100_s3_2x2x2_static_256",
      "RepetitionTime": 2000.0,
      "Rows": 900,
      "SAR": 0.08123632501449,
      "SamplesPerPixel": 1,
      "ScanOptions": "FS",
      "ScanningSequence": "EP",
      "SequenceName": "*epfid2d1_100",
      "SequenceVariant": "SK",
      "SeriesDescription": "bold_100x100_s3_2x2x2_static_256",
      "SeriesNumber": 12,
      "SeriesTime": "162225.834000",
      "SliceLocation": -52.551614853079,
      "SliceThickness": 2.0,
      "SmallestImagePixelValue": 0,
      "SoftwareVersions": "syngo MR E11",
      "SpacingBetweenSlices": 1.9999999963933,
      "SpecificCharacterSet": "ISO_IR 100",
      "StudyID": "1",
      "StudyTime": "150633.216000",
      "TransmitCoilName": "Body",
      "VariableFlipAngleFlag": "N",
      "WindowCenterWidthExplanation": "Algo1",
      "dBdt": 0.0},
    "slices": {}
  },
  "time": {
    "samples": {
      "AcquisitionNumber": [1, 2, 3, 4, 5, 6, 7, 8, 9, 10, 11, 12, 13, 14, 15, 16, 17, 18, 19, 20, 21, 22, 23, 24, 25, 26, 27, 28, 29, 30, 31, 32, 33, 34, 35, 36, 37, 38, 39, 40, 41, 42, 43, 44, 45, 46, 47, 48, 49, 50, 51, 52, 53, 54, 55, 56, 57, 58, 59, 60, 61, 62, 63, 64, 65, 66, 67, 68, 69, 70, 71, 72, 73, 74, 75, 76, 77, 78, 79, 80, 81, 82, 83, 84, 85, 86, 87, 88, 89, 90, 91, 92, 93, 94, 95, 96, 97, 98, 99, 100, 101, 102, 103, 104, 105, 106, 107, 108, 109, 110, 111, 112, 113, 114, 115, 116, 117, 118, 119, 120, 121, 122, 123, 124, 125, 126, 127, 128, 129, 130, 131, 132, 133, 134, 135, 136, 137, 138, 139, 140, 141, 142, 143, 144, 145, 146, 147, 148, 149, 150, 151, 152, 153, 154, 155, 156, 157, 158, 159, 160, 161, 162, 163, 164, 165, 166, 167, 168, 169, 170, 171, 172, 173, 174, 175, 176, 177, 178, 179, 180, 181, 182, 183, 184, 185, 186, 187, 188, 189, 190, 191, 192, 193, 194, 195, 196, 197, 198, 199, 200, 201, 202, 203, 204, 205, 206, 207, 208, 209, 210, 211, 212, 213, 214, 215, 216, 217, 218, 219, 220, 221, 222, 223, 224, 225, 226, 227, 228, 229, 230, 231, 232, 233, 234, 235, 236, 237, 238, 239, 240, 241, 242, 243, 244, 245, 246, 247, 248, 249, 250, 251, 252, 253, 254, 255, 256],
      "AcquisitionTime": ["162223.542500", "162225.542500", "162227.542500", "162229.542500", "162231.542500", "162233.542500", "162235.542500", "162237.542500", "162239.542500", "162241.542500", "162243.542500", "162245.542500", "162247.542500", "162249.542500", "162251.542500", "162253.542500", "162255.542500", "162257.542500", "162259.542500", "162301.542500", "162303.542500", "162305.542500", "162307.542500", "162309.542500", "162311.542500", "162313.542500", "162315.542500", "162317.542500", "162319.542500", "162321.542500", "162323.542500", "162325.542500", "162327.542500", "162329.542500", "162331.542500", "162333.542500", "162335.542500", "162337.542500", "162339.542500", "162341.542500", "162343.542500", "162345.542500", "162347.542500", "162349.542500", "162351.542500", "162353.542500", "162355.542500", "162357.542500", "162359.542500", "162401.542500", "162403.542500", "162405.542500", "162407.542500", "162409.542500", "162411.542500", "162413.542500", "162415.542500", "162417.542500", "162419.542500", "162421.542500", "162423.542500", "162425.542500", "162427.542500", "162429.542500", "162431.542500", "162433.542500", "162435.542500", "162437.542500", "162439.542500", "162441.542500", "162443.542500", "162445.542500", "162447.542500", "162449.542500", "162451.542500", "162453.542500", "162455.542500", "162457.542500", "162459.542500", "162501.542500", "162503.542500", "162505.542500", "162507.542500", "162509.542500", "162511.542500", "162513.542500", "162515.542500", "162517.542500", "162519.542500", "162521.542500", "162523.542500", "162525.542500", "162527.542500", "162529.542500", "162531.542500", "162533.542500", "162535.542500", "162537.542500", "162539.542500", "162541.542500", "162543.542500", "162545.542500", "162547.542500", "162549.542500", "162551.542500", "162553.542500", "162555.542500", "162557.542500", "162559.542500", "162601.542500", "162603.542500", "162605.542500", "162607.542500", "162609.542500", "162611.542500", "162613.542500", "162615.542500", "162617.542500", "162619.542500", "162621.542500", "162623.542500", "162625.542500", "162627.542500", "162629.542500", "162631.542500", "162633.542500", "162635.542500", "162637.542500", "162639.542500", "162641.542500", "162643.542500", "162645.542500", "162647.542500", "162649.542500", "162651.542500", "162653.542500", "162655.542500", "162657.542500", "162659.542500", "162701.542500", "162703.542500", "162705.542500", "162707.542500", "162709.542500", "162711.542500", "162713.542500", "162715.542500", "162717.542500", "162719.542500", "162721.542500", "162723.542500", "162725.542500", "162727.542500", "162729.542500", "162731.542500", "162733.542500", "162735.542500", "162737.542500", "162739.542500", "162741.542500", "162743.542500", "162745.542500", "162747.542500", "162749.542500", "162751.542500", "162753.542500", "162755.542500", "162757.542500", "162759.542500", "162801.542500", "162803.542500", "162805.542500", "162807.542500", "162809.542500", "162811.542500", "162813.542500", "162815.542500", "162817.542500", "162819.542500", "162821.542500", "162823.542500", "162825.542500", "162827.542500", "162829.542500", "162831.542500", "162833.542500", "162835.542500", "162837.542500", "162839.542500", "162841.542500", "162843.542500", "162845.542500", "162847.542500", "162849.542500", "162851.542500", "162853.542500", "162855.542500", "162857.542500", "162859.542500", "162901.542500", "162903.542500", "162905.542500", "162907.542500", "162909.542500", "162911.542500", "162913.542500", "162915.542500", "162917.542500", "162919.542500", "162921.542500", "162923.542500", "162925.542500", "162927.542500", "162929.542500", "162931.542500", "162933.542500", "162935.542500", "162937.542500", "162939.542500", "162941.542500", "162943.542500", "162945.542500", "162947.542500", "162949.542500", "162951.542500", "162953.542500", "162955.542500", "162957.542500", "162959.542500", "163001.542500", "163003.542500", "163005.542500", "163007.542500", "163009.542500", "163011.542500", "163013.542500", "163015.542500", "163017.542500", "163019.542500", "163021.542500", "163023.542500", "163025.542500", "163027.542500", "163029.542500", "163031.542500", "163033.542500", "163035.542500", "163037.542500", "163039.542500", "163041.542500", "163043.542500", "163045.542500", "163047.542500", "163049.542500", "163051.542500", "163053.542500"],
      "ContentTime": ["162225.838000", "162227.333000", "162229.333000", "162231.332000", "162233.333000", "162234.833000", "162237.334000", "162239.333000", "162241.334000", "162243.333000", "162244.833000", "162246.833000", "162248.832000", "162250.833000", "162253.334000", "162254.833000", "162256.834000", "162259.334000", "162301.334000", "162303.334000", "162305.334000", "162306.833000", "162308.834000", "162311.333000", "162313.334000", "162315.334000", "162317.334000", "162319.333000", "162321.334000", "162322.834000", "162325.334000", "162327.333000", "162328.834000", "162331.333000", "162333.333000", "162335.334000", "162337.333000", "162339.333000", "162341.332000", "162343.333000", "162345.333000", "162347.334000", "162349.334000", "162351.334000", "162353.334000", "162355.333000", "162357.333000", "162358.832000", "162401.333000", "162402.834000", "162405.333000", "162407.333000", "162409.334000", "162411.334000", "162413.333000", "162415.334000", "162417.332000", "162419.334000", "162420.834000", "162423.333000", "162424.833000", "162427.334000", "162429.333000", "162431.333000", "162433.333000", "162435.334000", "162437.334000", "162438.833000", "162441.334000", "162443.334000", "162445.333000", "162446.833000", "162449.334000", "162451.333000", "162453.334000", "162455.334000", "162456.834000", "162459.334000", "162501.334000", "162503.334000", "162505.333000", "162506.833000", "162509.333000", "162510.833000", "162513.334000", "162515.334000", "162516.833000", "162519.333000", "162520.833000", "162523.333000", "162525.334000", "162527.332000", "162529.334000", "162531.334000", "162533.333000", "162535.334000", "162536.833000", "162539.334000", "162541.333000", "162543.334000", "162545.333000", "162546.833000", "162549.333000", "162551.333000", "162553.333000", "162555.334000", "162557.334000", "162559.333000", "162601.333000", "162603.334000", "162605.333000", "162607.333000", "162608.833000", "162611.334000", "162613.334000", "162615.333000", "162617.334000", "162619.333000", "162621.334000", "162623.334000", "162625.334000", "162627.334000", "162629.334000", "162631.333000", "162633.334000", "162635.334000", "162637.332000", "162638.833000", "162641.333000", "162643.333000", "162644.833000", "162647.333000", "162649.334000", "162651.333000", "162653.334000", "162655.334000", "162657.334000", "162659.333000", "162701.333000", "162703.334000", "162704.833000", "162707.334000", "162708.833000", "162710.834000", "162713.334000", "162715.333000", "162717.334000", "162719.333000", "162720.833000", "162723.334000", "162725.334000", "162726.833000", "162729.333000", "162731.333000", "162733.345000", "162735.334000", "162737.333000", "162739.333000", "162740.833000", "162743.334000", "162745.333000", "162746.833000", "162748.834000", "162750.834000", "162753.333000", "162755.333000", "162756.834000", "162758.833000", "162800.833000", "162802.834000", "162804.833000", "162807.333000", "162809.334000", "162811.334000", "162812.834000", "162815.334000", "162817.333000", "162819.334000", "162821.333000", "162823.334000", "162825.334000", "162827.334000", "162829.333000", "162831.334000", "162832.833000", "162835.334000", "162837.334000", "162839.332000", "162841.334000", "162842.833000", "162845.333000", "162847.334000", "162849.334000", "162851.334000", "162853.334000", "162855.334000", "162856.833000", "162859.333000", "162901.334000", "162903.333000", "162905.334000", "162906.834000", "162909.333000", "162911.334000", "162913.334000", "162915.334000", "162917.334000", "162919.333000", "162920.834000", "162923.333000", "162925.334000", "162927.334000", "162928.833000", "162931.333000", "162933.334000", "162935.334000", "162937.333000", "162938.834000", "162941.334000", "162943.334000", "162945.334000", "162946.834000", "162949.333000", "162950.834000", "162953.334000", "162954.834000", "162957.334000", "162959.334000", "163000.833000", "163003.334000", "163004.833000", "163007.334000", "163009.334000", "163010.833000", "163012.834000", "163015.334000", "163017.334000", "163019.333000", "163020.833000", "163023.333000", "163025.333000", "163027.334000", "163029.334000", "163031.334000", "163033.333000", "163035.334000", "163037.334000", "163039.334000", "163041.333000", "163043.333000", "163045.334000", "163046.834000", "163049.334000", "163051.334000", "163052.834000", "163054.833000"],
      "InstanceCreationTime": ["162225.838000", "162227.333000", "162229.333000", "162231.332000", "162233.333000", "162234.833000", "162237.334000", "162239.333000", "162241.334000", "162243.333000", "162244.833000", "162246.833000", "162248.832000", "162250.833000", "162253.334000", "162254.833000", "162256.834000", "162259.334000", "162301.334000", "162303.334000", "162305.334000", "162306.833000", "162308.834000", "162311.333000", "162313.334000", "162315.334000", "162317.334000", "162319.333000", "162321.334000", "162322.834000", "162325.334000", "162327.333000", "162328.834000", "162331.333000", "162333.333000", "162335.334000", "162337.333000", "162339.333000", "162341.332000", "162343.333000", "162345.333000", "162347.334000", "162349.334000", "162351.334000", "162353.334000", "162355.333000", "162357.333000", "162358.832000", "162401.333000", "162402.834000", "162405.333000", "162407.333000", "162409.334000", "162411.334000", "162413.333000", "162415.334000", "162417.332000", "162419.334000", "162420.834000", "162423.333000", "162424.833000", "162427.334000", "162429.333000", "162431.333000", "162433.333000", "162435.334000", "162437.334000", "162438.833000", "162441.334000", "162443.334000", "162445.333000", "162446.833000", "162449.334000", "162451.333000", "162453.334000", "162455.334000", "162456.834000", "162459.334000", "162501.334000", "162503.334000", "162505.333000", "162506.833000", "162509.333000", "162510.833000", "162513.334000", "162515.334000", "162516.833000", "162519.333000", "162520.833000", "162523.333000", "162525.334000", "162527.332000", "162529.334000", "162531.334000", "162533.333000", "162535.334000", "162536.833000", "162539.334000", "162541.333000", "162543.334000", "162545.333000", "162546.833000", "162549.333000", "162551.333000", "162553.333000", "162555.334000", "162557.334000", "162559.333000", "162601.333000", "162603.334000", "162605.333000", "162607.333000", "162608.833000", "162611.334000", "162613.334000", "162615.333000", "162617.334000", "162619.333000", "162621.334000", "162623.334000", "162625.334000", "162627.334000", "162629.334000", "162631.333000", "162633.334000", "162635.334000", "162637.332000", "162638.833000", "162641.333000", "162643.333000", "162644.833000", "162647.333000", "162649.334000", "162651.333000", "162653.334000", "162655.334000", "162657.334000", "162659.333000", "162701.333000", "162703.334000", "162704.833000", "162707.334000", "162708.833000", "162710.834000", "162713.334000", "162715.333000", "162717.334000", "162719.333000", "162720.833000", "162723.334000", "162725.334000", "162726.833000", "162729.333000", "162731.333000", "162733.345000", "162735.334000", "162737.333000", "162739.333000", "162740.833000", "162743.334000", "162745.333000", "162746.833000", "162748.834000", "162750.834000", "162753.333000", "162755.333000", "162756.834000", "162758.833000", "162800.833000", "162802.834000", "162804.833000", "162807.333000", "162809.334000", "162811.334000", "162812.834000", "162815.334000", "162817.333000", "162819.334000", "162821.333000", "162823.334000", "162825.334000", "162827.334000", "162829.333000", "162831.334000", "162832.833000", "162835.334000", "162837.334000", "162839.332000", "162841.334000", "162842.833000", "162845.333000", "162847.334000", "162849.334000", "162851.334000", "162853.334000", "162855.334000", "162856.833000", "162859.333000", "162901.334000", "162903.333000", "162905.334000", "162906.834000", "162909.333000", "162911.334000", "162913.334000", "162915.334000", "162917.334000", "162919.333000", "162920.834000", "162923.333000", "162925.334000", "162927.334000", "162928.833000", "162931.333000", "162933.334000", "162935.334000", "162937.333000", "162938.834000", "162941.334000", "162943.334000", "162945.334000", "162946.834000", "162949.333000", "162950.834000", "162953.334000", "162954.834000", "162957.334000", "162959.334000", "163000.833000", "163003.334000", "163004.833000", "163007.334000", "163009.334000", "163010.833000", "163012.834000", "163015.334000", "163017.334000", "163019.333000", "163020.833000", "163023.333000", "163025.333000", "163027.334000", "163029.334000", "163031.334000", "163033.333000", "163035.334000", "163037.334000", "163039.334000", "163041.333000", "163043.333000", "163045.334000", "163046.834000", "163049.334000", "163051.334000", "163052.834000", "163054.833000"],
      "InstanceNumber": [1, 2, 3, 4, 5, 6, 7, 8, 9, 10, 11, 12, 13, 14, 15, 16, 17, 18, 19, 20, 21, 22, 23, 24, 25, 26, 27, 28, 29, 30, 31, 32, 33, 34, 35, 36, 37, 38, 39, 40, 41, 42, 43, 44, 45, 46, 47, 48, 49, 50, 51, 52, 53, 54, 55, 56, 57, 58, 59, 60, 61, 62, 63, 64, 65, 66, 67, 68, 69, 70, 71, 72, 73, 74, 75, 76, 77, 78, 79, 80, 81, 82, 83, 84, 85, 86, 87, 88, 89, 90, 91, 92, 93, 94, 95, 96, 97, 98, 99, 100, 101, 102, 103, 104, 105, 106, 107, 108, 109, 110, 111, 112, 113, 114, 115, 116, 117, 118, 119, 120, 121, 122, 123, 124, 125, 126, 127, 128, 129, 130, 131, 132, 133, 134, 135, 136, 137, 138, 139, 140, 141, 142, 143, 144, 145, 146, 147, 148, 149, 150, 151, 152, 153, 154, 155, 156, 157, 158, 159, 160, 161, 162, 163, 164, 165, 166, 167, 168, 169, 170, 171, 172, 173, 174, 175, 176, 177, 178, 179, 180, 181, 182, 183, 184, 185, 186, 187, 188, 189, 190, 191, 192, 193, 194, 195, 196, 197, 198, 199, 200, 201, 202, 203, 204, 205, 206, 207, 208, 209, 210, 211, 212, 213, 214, 215, 216, 217, 218, 219, 220, 221, 222, 223, 224, 225, 226, 227, 228, 229, 230, 231, 232, 233, 234, 235, 236, 237, 238, 239, 240, 241, 242, 243, 244, 245, 246, 247, 248, 249, 250, 251, 252, 253, 254, 255, 256],
      "LargestImagePixelValue": [3763, 3730, 3695, 3754, 3774, 3762, 3766, 3794, 3769, 3726, 3700, 3733, 3690, 3696, 3680, 3689, 3727, 3723, 3732, 3792, 3777, 3773, 3773, 3713, 3800, 3805, 3774, 3762, 3728, 3676, 3737, 3773, 3762, 3745, 3720, 3719, 3661, 3719, 3683, 3708, 3659, 3653, 3631, 3669, 3652, 3632, 3603, 3614, 3611, 3612, 3633, 3667, 3672, 3641, 3595, 3651, 3643, 3647, 3632, 3632, 3609, 3645, 3633, 3632, 3616, 3618, 3633, 3657, 3663, 3650, 3643, 3617, 3588, 3557, 3572, 3599, 3593, 3585, 3604, 3624, 3599, 3593, 3625, 3574, 3601, 3595, 3587, 3587, 3594, 3614, 3592, 3612, 3575, 3616, 3600, 3577, 3560, 3582, 3608, 3607, 3590, 3588, 3594, 3573, 3595, 3605, 3614, 3615, 3604, 3609, 3603, 3592, 3611, 3572, 3582, 3588, 3599, 3584, 3584, 3576, 3614, 3569, 3627, 3589, 3594, 3587, 3612, 3596, 3589, 3572, 3536, 3613, 3626, 3606, 3552, 3580, 3546, 3590, 3562, 3581, 3551, 3571, 3611, 3580, 3671, 3588, 3621, 3618, 3594, 3592, 3600, 3631, 3607, 3603, 3596, 3614, 3591, 3599, 3626, 3590, 3586, 3635, 3679, 3621, 3588, 3648, 3641, 3625, 3601, 3620, 3623, 3635, 3634, 3648, 3619, 3615, 3608, 3598, 3594, 3645, 3638, 3616, 3587, 3605, 3615, 3618, 3616, 3578, 3612, 3599, 3614, 3623, 3618, 3606, 3589, 3576, 3614, 3604, 3602, 3609, 3571, 3620, 3610, 3623, 3602, 3613, 3627, 3623, 3660, 3640, 3666, 3654, 3578, 3635, 3605, 3630, 3579, 3651, 3615, 3598, 3635, 3587, 3619, 3632, 3624, 3609, 3639, 3669, 3602, 3640, 3608, 3609, 3643, 3640, 3669, 3665, 3668, 3669, 3655, 3638, 3574, 3639, 3668, 3662, 3643, 3606, 3653, 3628, 3657, 3574, 3587, 3609, 3636, 3633, 3595, 3628],
      "WindowCenter": [785.0, 783.0, 782.0, 781.0, 780.0, 781.0, 781.0, 782.0, 781.0, 781.0, 781.0, 782.0, 782.0, 781.0, 782.0, 781.0, 781.0, 781.0, 782.0, 782.0, 781.0, 782.0, 783.0, 782.0, 782.0, 782.0, 782.0, 782.0, 781.0, 781.0, 782.0, 780.0, 779.0, 779.0, 780.0, 781.0, 781.0, 781.0, 781.0, 782.0, 781.0, 781.0, 782.0, 782.0, 782.0, 781.0, 781.0, 781.0, 783.0, 783.0, 783.0, 782.0, 782.0, 782.0, 782.0, 782.0, 781.0, 781.0, 782.0, 782.0, 782.0, 782.0, 782.0, 782.0, 783.0, 783.0, 782.0, 781.0, 781.0, 781.0, 781.0, 781.0, 782.0, 782.0, 782.0, 782.0, 781.0, 780.0, 780.0, 781.0, 781.0, 782.0, 782.0, 784.0, 784.0, 783.0, 784.0, 783.0, 784.0, 784.0, 783.0, 782.0, 782.0, 782.0, 782.0, 783.0, 784.0, 784.0, 783.0, 782.0, 782.0, 782.0, 782.0, 781.0, 781.0, 781.0, 782.0, 782.0, 783.0, 783.0, 782.0, 782.0, 782.0, 781.0, 782.0, 781.0, 782.0, 781.0, 781.0, 780.0, 780.0, 780.0, 781.0, 781.0, 780.0, 779.0, 781.0, 782.0, 781.0, 780.0, 782.0, 783.0, 783.0, 780.0, 779.0, 778.0, 776.0, 777.0, 777.0, 777.0, 776.0, 777.0, 778.0, 779.0, 780.0, 780.0, 782.0, 781.0, 781.0, 781.0, 781.0, 781.0, 781.0, 780.0, 780.0, 781.0, 781.0, 781.0, 780.0, 780.0, 781.0, 781.0, 783.0, 782.0, 780.0, 779.0, 781.0, 781.0, 780.0, 780.0, 780.0, 780.0, 780.0, 781.0, 781.0, 782.0, 783.0, 782.0, 783.0, 782.0, 782.0, 782.0, 782.0, 782.0, 782.0, 782.0, 783.0, 782.0, 781.0, 781.0, 783.0, 783.0, 783.0, 782.0, 782.0, 781.0, 782.0, 782.0, 782.0, 781.0, 781.0, 782.0, 782.0, 782.0, 782.0, 782.0, 783.0, 783.0, 784.0, 783.0, 783.0, 783.0, 782.0, 783.0, 783.0, 783.0, 782.0, 782.0, 781.0, 782.0, 783.0, 782.0, 781.0, 781.0, 781.0, 781.0, 782.0, 782.0, 783.0, 786.0, 785.0, 783.0, 783.0, 782.0, 782.0, 782.0, 782.0, 782.0, 782.0, 782.0, 783.0, 782.0, 782.0, 781.0, 780.0, 780.0, 781.0, 781.0, 780.0, 781.0, 781.0, 781.0, 781.0, 781.0, 782.0, 782.0],
      "WindowWidth": [1729.0, 1724.0, 1721.0, 1719.0, 1717.0, 1718.0, 1719.0, 1722.0, 1719.0, 1719.0, 1720.0, 1723.0, 1722.0, 1719.0, 1720.0, 1720.0, 1719.0, 1718.0, 1721.0, 1722.0, 1720.0, 1722.0, 1725.0, 1723.0, 1722.0, 1721.0, 1722.0, 1722.0, 1720.0, 1719.0, 1721.0, 1717.0, 1713.0, 1713.0, 1717.0, 1718.0, 1718.0, 1718.0, 1720.0, 1721.0, 1718.0, 1718.0, 1721.0, 1722.0, 1721.0, 1720.0, 1718.0, 1720.0, 1724.0, 1726.0, 1725.0, 1722.0, 1721.0, 1722.0, 1722.0, 1722.0, 1718.0, 1719.0, 1722.0, 1722.0, 1721.0, 1722.0, 1722.0, 1722.0, 1725.0, 1724.0, 1720.0, 1718.0, 1718.0, 1719.0, 1719.0, 1717.0, 1721.0, 1721.0, 1722.0, 1721.0, 1719.0, 1717.0, 1716.0, 1717.0, 1719.0, 1720.0, 1722.0, 1726.0, 1727.0, 1725.0, 1726.0, 1724.0, 1726.0, 1726.0, 1723.0, 1722.0, 1720.0, 1721.0, 1720.0, 1723.0, 1726.0, 1727.0, 1724.0, 1722.0, 1722.0, 1721.0, 1722.0, 1719.0, 1718.0, 1718.0, 1721.0, 1723.0, 1725.0, 1724.0, 1722.0, 1720.0, 1720.0, 1719.0, 1719.0, 1719.0, 1720.0, 1718.0, 1718.0, 1714.0, 1714.0, 1716.0, 1717.0, 1718.0, 1715.0, 1713.0, 1718.0, 1720.0, 1718.0, 1716.0, 1722.0, 1725.0, 1725.0, 1716.0, 1712.0, 1709.0, 1704.0, 1705.0, 1708.0, 1706.0, 1704.0, 1705.0, 1709.0, 1711.0, 1714.0, 1715.0, 1722.0, 1720.0, 1718.0, 1718.0, 1718.0, 1719.0, 1717.0, 1715.0, 1715.0, 1717.0, 1719.0, 1718.0, 1716.0, 1716.0, 1718.0, 1718.0, 1723.0, 1721.0, 1716.0, 1713.0, 1717.0, 1717.0, 1716.0, 1716.0, 1715.0, 1716.0, 1716.0, 1717.0, 1718.0, 1722.0, 1723.0, 1722.0, 1723.0, 1722.0, 1722.0, 1721.0, 1722.0, 1721.0, 1721.0, 1721.0, 1724.0, 1720.0, 1718.0, 1718.0, 1725.0, 1726.0, 1725.0, 1721.0, 1722.0, 1719.0, 1722.0, 1722.0, 1720.0, 1718.0, 1717.0, 1720.0, 1722.0, 1722.0, 1720.0, 1721.0, 1722.0, 1726.0, 1726.0, 1725.0, 1725.0, 1723.0, 1722.0, 1725.0, 1723.0, 1723.0, 1722.0, 1721.0, 1719.0, 1720.0, 1723.0, 1721.0, 1719.0, 1719.0, 1717.0, 1718.0, 1722.0, 1721.0, 1724.0, 1733.0, 1730.0, 1725.0, 1723.0, 1721.0, 1721.0, 1721.0, 1720.0, 1721.0, 1721.0, 1721.0, 1722.0, 1721.0, 1720.0, 1717.0, 1716.0, 1715.0, 1717.0, 1716.0, 1715.0, 1716.0, 1717.0, 1717.0, 1719.0, 1718.0, 1720.0, 1721.0]
    },
    "slices": {}
  }
}