{
  "AcquisitionMatrixPE": 100,
  "AcquisitionNumber": 1,
  "AcquisitionTime": "15:18:53.522500",
  "BandwidthPerPixelPhaseEncode": 18.519,
  "BaseResolution": 100,
  "BodyPartExamined": "BRAIN",
  "ConsistencyInfo": "N4_VE11C_LATEST_20160120",
  "ConversionSoftware": "dcm2niix",
  "ConversionSoftwareVersion": "v1.0.20180622 GCC4.9.2",
  "DerivedVendorReportedEchoSpacing": 0.000539986,
  "DeviceSerialNumber": "166078",
  "DwellTime": 2.1e-06,
  "EchoTime": 0.034,
  "EchoTrainLength": 100,
  "EffectiveEchoSpacing": 0.000539986,
  "FlipAngle": 90,
  "ImageOrientationPatientDICOM": [1, 0, 0, 0, 0.992757, -0.120137],
  "ImageType": [
    "ORIGINAL",
    "PRIMARY",
    "M",
    "ND",
    "MOSAIC"
],
  "InPlanePhaseEncodingDirectionDICOM": "COL",
  "InstitutionAddress": "Street_StreetNo_Bei_Jing_District_CN_ZIP",
  "InstitutionName": "BeiJing_Normal_University",
  "InstitutionalDepartmentName": "Department",
  "MRAcquisitionType": "2D",
  "MagneticFieldStrength": 3,
  "Manufacturer": "Siemens",
  "ManufacturersModelName": "Prisma",
  "Modality": "MR",
  "MultibandAccelerationFactor": 3,
  "PartialFourier": 1,
  "PatientPosition": "HFS",
  "PercentPhaseFOV": 100,
  "PhaseEncodingDirection": "j-",
  "PhaseEncodingSteps": 100,
  "PhaseResolution": 1,
  "PixelBandwidth": 2380,
  "ProcedureStepDescription": "BNU_P2018_64CH_Zhen.ZongLei",
  "ProtocolName": "bold_100x100_s3_2x2x2_static_256",
  "PulseSequenceDetails": "%SiemensSeq%_ep2d_bold",
  "ReceiveCoilActiveElements": "HC1-7;NC1",
  "ReceiveCoilName": "HeadNeck_64",
  "ReconMatrixPE": 100,
  "RepetitionTime": 2,
  "SAR": 0.0812363,
  "ScanOptions": "FS",
  "ScanningSequence": "EP",
  "SequenceName": "_epfid2d1_100",
  "SequenceVariant": "SK",
  "SeriesDescription": "bold_100x100_s3_2x2x2_static_256",
  "SeriesNumber": 4,
  "ShimSetting": [-5469, -11521, -1267, 437, -7, -194, -148, 39],
  "SliceThickness": 2,
  "SliceTiming": [1.485, 0, 0.99, 0.0825, 1.0725, 0.165, 1.155, 0.2475, 1.2375, 0.33, 1.32, 0.4125, 1.4025, 0.5775, 1.5675, 0.66, 1.65, 0.7425, 1.7325, 0.825, 1.815, 0.9075, 1.8975, 0.495, 1.485, 0, 0.99, 0.0825, 1.0725, 0.165, 1.155, 0.2475, 1.2375, 0.33, 1.32, 0.4125, 1.4025, 0.5775, 1.5675, 0.66, 1.65, 0.7425, 1.7325, 0.825, 1.815, 0.9075, 1.8975, 0.495, 1.485, 0, 0.99, 0.0825, 1.0725, 0.165, 1.155, 0.2475, 1.2375, 0.33, 1.32, 0.4125, 1.4025, 0.5775, 1.5675, 0.66, 1.65, 0.7425, 1.7325, 0.825, 1.815, 0.9075, 1.8975, 0.495],
  "SoftwareVersions": "syngo_MR_E11",
  "SpacingBetweenSlices": 2,
  "StationName": "AWP166078",
  "TaskName": "naturalvision",
  "TotalReadoutTime": 0.0534586,
  "TxRefAmp": 211.566,
  "dcmmeta_affine": [
    [-2.0, 0.0, 0.0, 106.0722885131836],
    [0.0, 1.9855146408081055, -0.24027368426322937, -89.5556869506836],
    [0.0, 0.24027368426322937, 1.9855146408081055, -63.77243423461914],
    [0.0, 0.0, 0.0, 1.0]
],
  "dcmmeta_reorient_transform": [
    [0.0, -1.0, 0.0, 99.0],
    [1.0, 0.0, 0.0, 0.0],
    [0.0, 0.0, 1.0, 0.0],
    [0.0, 0.0, 0.0, 1.0]
],
  "dcmmeta_shape": [100, 100, 72, 256],
  "dcmmeta_slice_dim": 2,
  "dcmmeta_version": 0.6,
  "global": {
    "const": {
      "AcquisitionMatrix": [100, 0, 0, 100],
      "AngioFlag": "N",
      "BitsAllocated": 16,
      "BitsStored": 12,
      "BodyPartExamined": "BRAIN",
      "Columns": 900,
      "EchoNumbers": 1,
      "EchoTime": 34.0,
      "EchoTrainLength": 100,
      "FlipAngle": 90.0,
      "HighBit": 11,
      "ImageOrientationPatient": [1.0, 0.0, 0.0, 0.0, 0.99275734119381, -0.1201368449136],
      "ImagePositionPatient": [-906.07228899002, -901.21614181488, 56.124136984749],
      "ImageType": [
        "ORIGINAL",
        "PRIMARY",
        "M",
        "ND",
        "MOSAIC"
],
      "ImagedNucleus": "1H",
      "ImagingFrequency": 123.257762,
      "InPlanePhaseEncodingDirection": "COL",
      "MRAcquisitionType": "2D",
      "MagneticFieldStrength": 3.0,
      "Manufacturer": "SIEMENS",
      "ManufacturerModelName": "Prisma",
      "Modality": "MR",
      "NumberOfAverages": 1.0,
      "NumberOfPhaseEncodingSteps": 100,
      "PercentPhaseFieldOfView": 100.0,
      "PercentSampling": 100.0,
      "PerformedProcedureStepStartTime": "150633.316000",
      "PhotometricInterpretation": "MONOCHROME2",
      "PixelBandwidth": 2380.0,
      "PixelRepresentation": 0,
      "PixelSpacing": [2.0, 2.0],
      "ProtocolName": "bold_100x100_s3_2x2x2_static_256",
      "RepetitionTime": 2000.0,
      "Rows": 900,
      "SAR": 0.08123632501449,
      "SamplesPerPixel": 1,
      "ScanOptions": "FS",
      "ScanningSequence": "EP",
      "SequenceName": "*epfid2d1_100",
      "SequenceVariant": "SK",
      "SeriesDescription": "bold_100x100_s3_2x2x2_static_256",
      "SeriesNumber": 4,
      "SeriesTime": "151856.647000",
      "SliceLocation": -52.551614853079,
      "SliceThickness": 2.0,
      "SmallestImagePixelValue": 0,
      "SoftwareVersions": "syngo MR E11",
      "SpacingBetweenSlices": 1.9999999963933,
      "SpecificCharacterSet": "ISO_IR 100",
      "StudyID": "1",
      "StudyTime": "150633.216000",
      "TransmitCoilName": "Body",
      "VariableFlipAngleFlag": "N",
      "WindowCenterWidthExplanation": "Algo1",
      "dBdt": 0.0},
    "slices": {}
  },
  "time": {
    "samples": {
      "AcquisitionNumber": [1, 2, 3, 4, 5, 6, 7, 8, 9, 10, 11, 12, 13, 14, 15, 16, 17, 18, 19, 20, 21, 22, 23, 24, 25, 26, 27, 28, 29, 30, 31, 32, 33, 34, 35, 36, 37, 38, 39, 40, 41, 42, 43, 44, 45, 46, 47, 48, 49, 50, 51, 52, 53, 54, 55, 56, 57, 58, 59, 60, 61, 62, 63, 64, 65, 66, 67, 68, 69, 70, 71, 72, 73, 74, 75, 76, 77, 78, 79, 80, 81, 82, 83, 84, 85, 86, 87, 88, 89, 90, 91, 92, 93, 94, 95, 96, 97, 98, 99, 100, 101, 102, 103, 104, 105, 106, 107, 108, 109, 110, 111, 112, 113, 114, 115, 116, 117, 118, 119, 120, 121, 122, 123, 124, 125, 126, 127, 128, 129, 130, 131, 132, 133, 134, 135, 136, 137, 138, 139, 140, 141, 142, 143, 144, 145, 146, 147, 148, 149, 150, 151, 152, 153, 154, 155, 156, 157, 158, 159, 160, 161, 162, 163, 164, 165, 166, 167, 168, 169, 170, 171, 172, 173, 174, 175, 176, 177, 178, 179, 180, 181, 182, 183, 184, 185, 186, 187, 188, 189, 190, 191, 192, 193, 194, 195, 196, 197, 198, 199, 200, 201, 202, 203, 204, 205, 206, 207, 208, 209, 210, 211, 212, 213, 214, 215, 216, 217, 218, 219, 220, 221, 222, 223, 224, 225, 226, 227, 228, 229, 230, 231, 232, 233, 234, 235, 236, 237, 238, 239, 240, 241, 242, 243, 244, 245, 246, 247, 248, 249, 250, 251, 252, 253, 254, 255, 256],
      "AcquisitionTime": ["151853.522500", "151855.522500", "151857.522500", "151859.522500", "151901.522500", "151903.522500", "151905.522500", "151907.522500", "151909.522500", "151911.522500", "151913.522500", "151915.522500", "151917.522500", "151919.522500", "151921.522500", "151923.522500", "151925.522500", "151927.522500", "151929.522500", "151931.522500", "151933.522500", "151935.522500", "151937.522500", "151939.522500", "151941.522500", "151943.522500", "151945.522500", "151947.522500", "151949.522500", "151951.522500", "151953.522500", "151955.522500", "151957.522500", "151959.522500", "152001.522500", "152003.522500", "152005.522500", "152007.522500", "152009.522500", "152011.522500", "152013.522500", "152015.522500", "152017.522500", "152019.522500", "152021.522500", "152023.522500", "152025.522500", "152027.522500", "152029.522500", "152031.522500", "152033.522500", "152035.522500", "152037.522500", "152039.522500", "152041.522500", "152043.522500", "152045.522500", "152047.522500", "152049.522500", "152051.522500", "152053.522500", "152055.522500", "152057.522500", "152059.522500", "152101.522500", "152103.522500", "152105.522500", "152107.522500", "152109.522500", "152111.522500", "152113.522500", "152115.522500", "152117.522500", "152119.522500", "152121.522500", "152123.522500", "152125.522500", "152127.522500", "152129.522500", "152131.522500", "152133.522500", "152135.522500", "152137.522500", "152139.522500", "152141.522500", "152143.522500", "152145.522500", "152147.522500", "152149.522500", "152151.522500", "152153.522500", "152155.522500", "152157.522500", "152159.522500", "152201.522500", "152203.522500", "152205.522500", "152207.522500", "152209.522500", "152211.522500", "152213.522500", "152215.522500", "152217.522500", "152219.522500", "152221.522500", "152223.522500", "152225.522500", "152227.522500", "152229.522500", "152231.522500", "152233.522500", "152235.522500", "152237.522500", "152239.522500", "152241.522500", "152243.522500", "152245.522500", "152247.522500", "152249.522500", "152251.522500", "152253.522500", "152255.522500", "152257.522500", "152259.522500", "152301.522500", "152303.522500", "152305.522500", "152307.522500", "152309.522500", "152311.522500", "152313.522500", "152315.522500", "152317.522500", "152319.522500", "152321.522500", "152323.522500", "152325.522500", "152327.522500", "152329.522500", "152331.522500", "152333.522500", "152335.522500", "152337.522500", "152339.522500", "152341.522500", "152343.522500", "152345.522500", "152347.522500", "152349.522500", "152351.522500", "152353.522500", "152355.522500", "152357.522500", "152359.522500", "152401.522500", "152403.522500", "152405.522500", "152407.522500", "152409.522500", "152411.522500", "152413.522500", "152415.522500", "152417.522500", "152419.522500", "152421.522500", "152423.522500", "152425.522500", "152427.522500", "152429.522500", "152431.522500", "152433.522500", "152435.522500", "152437.522500", "152439.522500", "152441.522500", "152443.522500", "152445.522500", "152447.522500", "152449.522500", "152451.522500", "152453.522500", "152455.522500", "152457.522500", "152459.522500", "152501.522500", "152503.522500", "152505.522500", "152507.522500", "152509.522500", "152511.522500", "152513.522500", "152515.522500", "152517.522500", "152519.522500", "152521.522500", "152523.522500", "152525.522500", "152527.522500", "152529.522500", "152531.522500", "152533.522500", "152535.522500", "152537.522500", "152539.522500", "152541.522500", "152543.522500", "152545.522500", "152547.522500", "152549.522500", "152551.522500", "152553.522500", "152555.522500", "152557.522500", "152559.522500", "152601.522500", "152603.522500", "152605.522500", "152607.522500", "152609.522500", "152611.522500", "152613.522500", "152615.522500", "152617.522500", "152619.522500", "152621.522500", "152623.522500", "152625.522500", "152627.522500", "152629.522500", "152631.522500", "152633.522500", "152635.522500", "152637.522500", "152639.522500", "152641.522500", "152643.522500", "152645.522500", "152647.522500", "152649.522500", "152651.522500", "152653.522500", "152655.522500", "152657.522500", "152659.522500", "152701.522500", "152703.522500", "152705.522500", "152707.522500", "152709.522500", "152711.522500", "152713.522500", "152715.522500", "152717.522500", "152719.522500", "152721.522500", "152723.522500"],
      "ContentTime": ["151856.651000", "151857.647000", "151859.646000", "151901.647000", "151903.647000", "151905.647000", "151907.647000", "151910.147000", "151912.146000", "151913.646000", "151915.646000", "151917.647000", "151920.148000", "151921.648000", "151924.148000", "151925.647000", "151927.647000", "151929.646000", "151931.647000", "151933.646000", "151935.646000", "151938.147000", "151939.647000", "151941.647000", "151943.647000", "151946.146000", "151947.646000", "151949.647000", "151951.646000", "151953.647000", "151955.647000", "151957.647000", "151959.648000", "152001.648000", "152003.647000", "152005.646000", "152007.646000", "152009.646000", "152011.647000", "152013.647000", "152016.147000", "152017.647000", "152020.147000", "152021.647000", "152023.646000", "152026.147000", "152027.646000", "152029.648000", "152031.647000", "152033.648000", "152036.147000", "152037.648000", "152040.146000", "152041.647000", "152044.147000", "152046.147000", "152047.648000", "152049.647000", "152051.648000", "152054.147000", "152056.146000", "152057.646000", "152059.646000", "152101.646000", "152103.647000", "152106.148000", "152108.147000", "152109.647000", "152112.148000", "152113.646000", "152116.147000", "152117.646000", "152119.646000", "152121.648000", "152123.647000", "152126.147000", "152127.647000", "152129.648000", "152131.647000", "152134.146000", "152136.147000", "152137.647000", "152139.648000", "152142.148000", "152143.647000", "152145.648000", "152147.649000", "152150.146000", "152152.146000", "152154.146000", "152155.646000", "152158.147000", "152200.147000", "152201.647000", "152203.648000", "152205.646000", "152207.646000", "152210.147000", "152211.646000", "152214.148000", "152215.647000", "152217.647000", "152219.647000", "152222.148000", "152223.646000", "152225.646000", "152227.647000", "152229.646000", "152231.648000", "152234.147000", "152235.648000", "152238.147000", "152240.148000", "152242.147000", "152243.646000", "152245.646000", "152247.646000", "152249.648000", "152251.647000", "152253.648000", "152256.147000", "152258.147000", "152259.647000", "152301.647000", "152303.646000", "152306.147000", "152308.147000", "152310.147000", "152311.647000", "152313.647000", "152315.647000", "152318.146000", "152319.646000", "152321.646000", "152324.147000", "152325.648000", "152328.147000", "152330.148000", "152331.647000", "152333.647000", "152336.147000", "152337.646000", "152340.146000", "152342.148000", "152344.147000", "152345.648000", "152347.647000", "152349.647000", "152351.646000", "152353.647000", "152355.647000", "152357.646000", "152359.647000", "152401.648000", "152404.148000", "152405.648000", "152407.648000", "152410.146000", "152412.147000", "152413.647000", "152415.646000", "152418.149000", "152419.647000", "152422.147000", "152423.648000", "152426.147000", "152428.146000", "152429.647000", "152431.647000", "152433.647000", "152435.648000", "152438.148000", "152439.648000", "152441.647000", "152443.647000", "152445.647000", "152447.647000", "152450.147000", "152452.148000", "152453.648000", "152456.147000", "152457.648000", "152500.148000", "152501.646000", "152503.646000", "152505.646000", "152508.146000", "152509.648000", "152511.648000", "152514.147000", "152516.147000", "152518.146000", "152519.646000", "152521.647000", "152524.146000", "152526.148000", "152527.648000", "152529.648000", "152531.648000", "152534.147000", "152536.146000", "152537.646000", "152540.146000", "152541.647000", "152544.147000", "152546.147000", "152547.647000", "152549.647000", "152552.147000", "152553.647000", "152555.646000", "152557.646000", "152600.147000", "152601.647000", "152604.147000", "152605.647000", "152607.648000", "152609.648000", "152612.147000", "152614.147000", "152615.646000", "152618.147000", "152619.648000", "152621.647000", "152624.148000", "152626.147000", "152627.648000", "152629.646000", "152631.647000", "152633.646000", "152635.646000", "152637.648000", "152639.648000", "152642.147000", "152643.648000", "152646.147000", "152648.147000", "152649.646000", "152652.147000", "152653.647000", "152655.648000", "152657.648000", "152659.648000", "152702.147000", "152703.646000", "152705.647000", "152707.646000", "152709.646000", "152711.647000", "152713.647000", "152715.647000", "152717.647000", "152719.648000", "152722.146000", "152724.147000", "152725.656000"],
      "InstanceCreationTime": ["151856.651000", "151857.647000", "151859.646000", "151901.647000", "151903.647000", "151905.647000", "151907.647000", "151910.147000", "151912.146000", "151913.646000", "151915.646000", "151917.647000", "151920.148000", "151921.648000", "151924.148000", "151925.647000", "151927.647000", "151929.646000", "151931.647000", "151933.646000", "151935.646000", "151938.147000", "151939.647000", "151941.647000", "151943.647000", "151946.146000", "151947.646000", "151949.647000", "151951.646000", "151953.647000", "151955.647000", "151957.647000", "151959.648000", "152001.648000", "152003.647000", "152005.646000", "152007.646000", "152009.646000", "152011.647000", "152013.647000", "152016.147000", "152017.647000", "152020.147000", "152021.647000", "152023.646000", "152026.147000", "152027.646000", "152029.648000", "152031.647000", "152033.648000", "152036.147000", "152037.648000", "152040.146000", "152041.647000", "152044.147000", "152046.147000", "152047.648000", "152049.647000", "152051.648000", "152054.147000", "152056.146000", "152057.646000", "152059.646000", "152101.646000", "152103.647000", "152106.148000", "152108.147000", "152109.647000", "152112.148000", "152113.646000", "152116.147000", "152117.646000", "152119.646000", "152121.648000", "152123.647000", "152126.147000", "152127.647000", "152129.648000", "152131.647000", "152134.146000", "152136.147000", "152137.647000", "152139.648000", "152142.148000", "152143.647000", "152145.648000", "152147.649000", "152150.146000", "152152.146000", "152154.146000", "152155.646000", "152158.147000", "152200.147000", "152201.647000", "152203.648000", "152205.646000", "152207.646000", "152210.147000", "152211.646000", "152214.148000", "152215.647000", "152217.647000", "152219.647000", "152222.148000", "152223.646000", "152225.646000", "152227.647000", "152229.646000", "152231.648000", "152234.147000", "152235.648000", "152238.147000", "152240.148000", "152242.147000", "152243.646000", "152245.646000", "152247.646000", "152249.648000", "152251.647000", "152253.648000", "152256.147000", "152258.147000", "152259.647000", "152301.647000", "152303.646000", "152306.147000", "152308.147000", "152310.147000", "152311.647000", "152313.647000", "152315.647000", "152318.146000", "152319.646000", "152321.646000", "152324.147000", "152325.648000", "152328.147000", "152330.148000", "152331.647000", "152333.647000", "152336.147000", "152337.646000", "152340.146000", "152342.148000", "152344.147000", "152345.648000", "152347.647000", "152349.647000", "152351.646000", "152353.647000", "152355.647000", "152357.646000", "152359.647000", "152401.648000", "152404.148000", "152405.648000", "152407.648000", "152410.146000", "152412.147000", "152413.647000", "152415.646000", "152418.149000", "152419.647000", "152422.147000", "152423.648000", "152426.147000", "152428.146000", "152429.647000", "152431.647000", "152433.647000", "152435.648000", "152438.148000", "152439.648000", "152441.647000", "152443.647000", "152445.647000", "152447.647000", "152450.147000", "152452.148000", "152453.648000", "152456.147000", "152457.648000", "152500.148000", "152501.646000", "152503.646000", "152505.646000", "152508.146000", "152509.648000", "152511.648000", "152514.147000", "152516.147000", "152518.146000", "152519.646000", "152521.647000", "152524.146000", "152526.148000", "152527.648000", "152529.648000", "152531.648000", "152534.147000", "152536.146000", "152537.646000", "152540.146000", "152541.647000", "152544.147000", "152546.147000", "152547.647000", "152549.647000", "152552.147000", "152553.647000", "152555.646000", "152557.646000", "152600.147000", "152601.647000", "152604.147000", "152605.647000", "152607.648000", "152609.648000", "152612.147000", "152614.147000", "152615.646000", "152618.147000", "152619.648000", "152621.647000", "152624.148000", "152626.147000", "152627.648000", "152629.646000", "152631.647000", "152633.646000", "152635.646000", "152637.648000", "152639.648000", "152642.147000", "152643.648000", "152646.147000", "152648.147000", "152649.646000", "152652.147000", "152653.647000", "152655.648000", "152657.648000", "152659.648000", "152702.147000", "152703.646000", "152705.647000", "152707.646000", "152709.646000", "152711.647000", "152713.647000", "152715.647000", "152717.647000", "152719.648000", "152722.146000", "152724.147000", "152725.656000"],
      "InstanceNumber": [1, 2, 3, 4, 5, 6, 7, 8, 9, 10, 11, 12, 13, 14, 15, 16, 17, 18, 19, 20, 21, 22, 23, 24, 25, 26, 27, 28, 29, 30, 31, 32, 33, 34, 35, 36, 37, 38, 39, 40, 41, 42, 43, 44, 45, 46, 47, 48, 49, 50, 51, 52, 53, 54, 55, 56, 57, 58, 59, 60, 61, 62, 63, 64, 65, 66, 67, 68, 69, 70, 71, 72, 73, 74, 75, 76, 77, 78, 79, 80, 81, 82, 83, 84, 85, 86, 87, 88, 89, 90, 91, 92, 93, 94, 95, 96, 97, 98, 99, 100, 101, 102, 103, 104, 105, 106, 107, 108, 109, 110, 111, 112, 113, 114, 115, 116, 117, 118, 119, 120, 121, 122, 123, 124, 125, 126, 127, 128, 129, 130, 131, 132, 133, 134, 135, 136, 137, 138, 139, 140, 141, 142, 143, 144, 145, 146, 147, 148, 149, 150, 151, 152, 153, 154, 155, 156, 157, 158, 159, 160, 161, 162, 163, 164, 165, 166, 167, 168, 169, 170, 171, 172, 173, 174, 175, 176, 177, 178, 179, 180, 181, 182, 183, 184, 185, 186, 187, 188, 189, 190, 191, 192, 193, 194, 195, 196, 197, 198, 199, 200, 201, 202, 203, 204, 205, 206, 207, 208, 209, 210, 211, 212, 213, 214, 215, 216, 217, 218, 219, 220, 221, 222, 223, 224, 225, 226, 227, 228, 229, 230, 231, 232, 233, 234, 235, 236, 237, 238, 239, 240, 241, 242, 243, 244, 245, 246, 247, 248, 249, 250, 251, 252, 253, 254, 255, 256],
      "LargestImagePixelValue": [3684, 3677, 3618, 3633, 3649, 3646, 3639, 3610, 3667, 3625, 3624, 3633, 3616, 3653, 3628, 3701, 3620, 3649, 3620, 3646, 3663, 3609, 3627, 3592, 3547, 3580, 3609, 3638, 3596, 3586, 3602, 3606, 3624, 3690, 3615, 3577, 3584, 3629, 3625, 3670, 3640, 3697, 3579, 3552, 3589, 3581, 3683, 3593, 3634, 3635, 3633, 3552, 3590, 3543, 3589, 3572, 3542, 3554, 3591, 3595, 3575, 3544, 3621, 3666, 3660, 3651, 3668, 3644, 3658, 3645, 3617, 3550, 3578, 3570, 3634, 3634, 3626, 3593, 3538, 3538, 3574, 3559, 3595, 3635, 3678, 3631, 3583, 3568, 3611, 3633, 3584, 3580, 3586, 3603, 3602, 3641, 3632, 3570, 3547, 3580, 3619, 3673, 3676, 3575, 3611, 3648, 3593, 3548, 3634, 3641, 3629, 3644, 3616, 3550, 3552, 3576, 3573, 3559, 3573, 3608, 3577, 3632, 3640, 3608, 3600, 3575, 3579, 3619, 3590, 3562, 3607, 3561, 3577, 3570, 3571, 3577, 3569, 3565, 3595, 3562, 3549, 3573, 3559, 3595, 3538, 3620, 3646, 3629, 3597, 3586, 3584, 3592, 3622, 3679, 3597, 3578, 3561, 3566, 3605, 3603, 3564, 3550, 3533, 3585, 3611, 3606, 3623, 3571, 3560, 3566, 3560, 3582, 3587, 3541, 3586, 3533, 3598, 3763, 3589, 3580, 3575, 3585, 3603, 3688, 3608, 3564, 3547, 3579, 3581, 3544, 3572, 3563, 3600, 3593, 3633, 3618, 3602, 3564, 3690, 3637, 3669, 3613, 3561, 3569, 3647, 3690, 3611, 3667, 3642, 3627, 3654, 3601, 3598, 3576, 3576, 3542, 3618, 3601, 3638, 3590, 3617, 3690, 3663, 3568, 3609, 3662, 3683, 3639, 3668, 3599, 3585, 3639, 3709, 3699, 3607, 3599, 3705, 3696, 3602, 3676, 3620, 3581, 3631, 3655, 3638, 3594, 3638, 3617, 3647, 3589, 3630, 3641, 3679, 3710, 3732, 3665],
      "WindowCenter": [782.0, 781.0, 780.0, 780.0, 779.0, 779.0, 779.0, 778.0, 778.0, 779.0, 779.0, 779.0, 779.0, 779.0, 778.0, 778.0, 778.0, 778.0, 777.0, 776.0, 776.0, 776.0, 777.0, 778.0, 778.0, 777.0, 777.0, 777.0, 778.0, 778.0, 778.0, 778.0, 777.0, 778.0, 777.0, 777.0, 778.0, 779.0, 778.0, 777.0, 776.0, 777.0, 777.0, 777.0, 777.0, 776.0, 777.0, 776.0, 777.0, 777.0, 777.0, 778.0, 778.0, 777.0, 777.0, 778.0, 777.0, 777.0, 777.0, 778.0, 778.0, 777.0, 777.0, 776.0, 776.0, 776.0, 776.0, 775.0, 775.0, 775.0, 776.0, 778.0, 778.0, 777.0, 777.0, 777.0, 777.0, 777.0, 777.0, 777.0, 776.0, 777.0, 778.0, 777.0, 777.0, 777.0, 777.0, 776.0, 776.0, 776.0, 776.0, 777.0, 776.0, 775.0, 775.0, 776.0, 777.0, 777.0, 777.0, 777.0, 776.0, 776.0, 777.0, 776.0, 775.0, 776.0, 778.0, 778.0, 778.0, 777.0, 776.0, 776.0, 776.0, 776.0, 777.0, 776.0, 776.0, 777.0, 777.0, 777.0, 776.0, 777.0, 777.0, 777.0, 777.0, 777.0, 778.0, 777.0, 777.0, 778.0, 778.0, 777.0, 777.0, 777.0, 778.0, 777.0, 777.0, 777.0, 778.0, 777.0, 776.0, 777.0, 778.0, 778.0, 777.0, 776.0, 776.0, 776.0, 777.0, 777.0, 777.0, 777.0, 776.0, 776.0, 777.0, 777.0, 777.0, 776.0, 777.0, 778.0, 778.0, 777.0, 777.0, 776.0, 776.0, 776.0, 777.0, 777.0, 777.0, 777.0, 777.0, 776.0, 777.0, 777.0, 778.0, 777.0, 776.0, 777.0, 777.0, 778.0, 778.0, 776.0, 777.0, 777.0, 777.0, 777.0, 776.0, 777.0, 777.0, 777.0, 778.0, 778.0, 778.0, 778.0, 777.0, 777.0, 778.0, 777.0, 778.0, 778.0, 779.0, 778.0, 778.0, 779.0, 779.0, 779.0, 778.0, 778.0, 778.0, 778.0, 778.0, 778.0, 778.0, 777.0, 777.0, 776.0, 777.0, 778.0, 778.0, 776.0, 777.0, 777.0, 777.0, 777.0, 777.0, 777.0, 777.0, 777.0, 777.0, 777.0, 777.0, 777.0, 778.0, 778.0, 779.0, 779.0, 778.0, 778.0, 778.0, 779.0, 779.0, 778.0, 778.0, 778.0, 778.0, 778.0, 778.0, 778.0, 777.0, 778.0, 779.0, 778.0, 778.0, 778.0, 779.0, 778.0],
      "WindowWidth": [1725.0, 1722.0, 1720.0, 1718.0, 1717.0, 1716.0, 1717.0, 1714.0, 1714.0, 1715.0, 1716.0, 1717.0, 1716.0, 1716.0, 1713.0, 1715.0, 1714.0, 1714.0, 1711.0, 1708.0, 1706.0, 1708.0, 1710.0, 1713.0, 1713.0, 1711.0, 1709.0, 1710.0, 1713.0, 1713.0, 1713.0, 1711.0, 1711.0, 1712.0, 1711.0, 1710.0, 1714.0, 1715.0, 1713.0, 1710.0, 1708.0, 1711.0, 1710.0, 1710.0, 1709.0, 1708.0, 1709.0, 1708.0, 1710.0, 1710.0, 1712.0, 1712.0, 1713.0, 1711.0, 1711.0, 1713.0, 1711.0, 1710.0, 1711.0, 1713.0, 1714.0, 1710.0, 1709.0, 1707.0, 1708.0, 1708.0, 1706.0, 1704.0, 1704.0, 1704.0, 1708.0, 1712.0, 1713.0, 1710.0, 1709.0, 1710.0, 1711.0, 1711.0, 1711.0, 1710.0, 1709.0, 1709.0, 1712.0, 1711.0, 1711.0, 1710.0, 1709.0, 1707.0, 1707.0, 1706.0, 1708.0, 1709.0, 1707.0, 1703.0, 1705.0, 1706.0, 1709.0, 1709.0, 1709.0, 1709.0, 1708.0, 1708.0, 1710.0, 1708.0, 1705.0, 1707.0, 1713.0, 1712.0, 1713.0, 1710.0, 1708.0, 1706.0, 1708.0, 1709.0, 1709.0, 1708.0, 1707.0, 1709.0, 1709.0, 1708.0, 1707.0, 1709.0, 1711.0, 1711.0, 1710.0, 1710.0, 1711.0, 1710.0, 1709.0, 1712.0, 1714.0, 1710.0, 1709.0, 1711.0, 1713.0, 1710.0, 1708.0, 1709.0, 1712.0, 1710.0, 1707.0, 1709.0, 1712.0, 1712.0, 1709.0, 1708.0, 1708.0, 1708.0, 1709.0, 1708.0, 1710.0, 1708.0, 1706.0, 1707.0, 1709.0, 1710.0, 1710.0, 1708.0, 1711.0, 1712.0, 1711.0, 1710.0, 1709.0, 1707.0, 1707.0, 1708.0, 1708.0, 1709.0, 1709.0, 1710.0, 1709.0, 1708.0, 1710.0, 1709.0, 1711.0, 1710.0, 1707.0, 1709.0, 1709.0, 1711.0, 1711.0, 1707.0, 1708.0, 1711.0, 1711.0, 1708.0, 1708.0, 1708.0, 1709.0, 1709.0, 1712.0, 1712.0, 1712.0, 1711.0, 1710.0, 1710.0, 1713.0, 1709.0, 1713.0, 1714.0, 1714.0, 1713.0, 1713.0, 1714.0, 1716.0, 1715.0, 1713.0, 1714.0, 1712.0, 1711.0, 1713.0, 1712.0, 1711.0, 1710.0, 1709.0, 1707.0, 1709.0, 1711.0, 1711.0, 1707.0, 1708.0, 1709.0, 1709.0, 1709.0, 1708.0, 1709.0, 1710.0, 1710.0, 1710.0, 1709.0, 1708.0, 1711.0, 1712.0, 1713.0, 1715.0, 1714.0, 1713.0, 1711.0, 1713.0, 1714.0, 1715.0, 1713.0, 1713.0, 1713.0, 1712.0, 1711.0, 1713.0, 1711.0, 1710.0, 1713.0, 1715.0, 1712.0, 1711.0, 1713.0, 1715.0, 1713.0]
    },
    "slices": {}
  }
}