{
 "AcquisitionMatrixPE": 100,
 "AcquisitionNumber": 1,
 "AcquisitionTime": "16:02:6.635000",
 "BandwidthPerPixelPhaseEncode": 18.519,
 "BaseResolution": 100,
 "BodyPartExamined": "BRAIN",
 "ConsistencyInfo": "N4_VE11C_LATEST_20160120",
 "ConversionSoftware": "dcm2niix",
 "ConversionSoftwareVersion": "v1.0.20180622 GCC4.9.2",
 "DerivedVendorReportedEchoSpacing": 0.000539986,
 "DeviceSerialNumber": "166078",
 "DwellTime": 2.1e-06,
 "EchoTime": 0.034,
 "EchoTrainLength": 100,
 "EffectiveEchoSpacing": 0.000539986,
 "FlipAngle": 90,
 "ImageOrientationPatientDICOM": [
  1,
  0,
  0,
  0,
  0.992757,
  -0.120137
 ],
 "ImageType": [
  "ORIGINAL",
  "PRIMARY",
  "M",
  "ND",
  "MOSAIC"
 ],
 "InPlanePhaseEncodingDirectionDICOM": "COL",
 "InstitutionAddress": "Street_StreetNo_Bei_Jing_District_CN_ZIP",
 "InstitutionName": "BeiJing_Normal_University",
 "InstitutionalDepartmentName": "Department",
 "MRAcquisitionType": "2D",
 "MagneticFieldStrength": 3,
 "Manufacturer": "Siemens",
 "ManufacturersModelName": "Prisma",
 "Modality": "MR",
 "MultibandAccelerationFactor": 3,
 "PartialFourier": 1,
 "PatientPosition": "HFS",
 "PercentPhaseFOV": 100,
 "PhaseEncodingDirection": "j-",
 "PhaseEncodingSteps": 100,
 "PhaseResolution": 1,
 "PixelBandwidth": 2380,
 "ProcedureStepDescription": "BNU_P2018_64CH_Zhen.ZongLei",
 "ProtocolName": "bold_100x100_s3_2x2x2_static_256",
 "PulseSequenceDetails": "%SiemensSeq%_ep2d_bold",
 "ReceiveCoilActiveElements": "HC1-7;NC1",
 "ReceiveCoilName": "HeadNeck_64",
 "ReconMatrixPE": 100,
 "RepetitionTime": 2,
 "SAR": 0.0812363,
 "ScanOptions": "FS",
 "ScanningSequence": "EP",
 "SequenceName": "_epfid2d1_100",
 "SequenceVariant": "SK",
 "SeriesDescription": "bold_100x100_s3_2x2x2_static_256",
 "SeriesNumber": 10,
 "ShimSetting": [
  -5469,
  -11521,
  -1267,
  437,
  -7,
  -194,
  -148,
  39
 ],
 "SliceThickness": 2,
 "SliceTiming": [
  1.4825,
  0,
  0.9875,
  0.0825,
  1.07,
  0.165,
  1.1525,
  0.2475,
  1.235,
  0.3275,
  1.3175,
  0.41,
  1.4,
  0.575,
  1.565,
  0.6575,
  1.6475,
  0.74,
  1.73,
  0.8225,
  1.8125,
  0.905,
  1.895,
  0.4925,
  1.4825,
  0,
  0.9875,
  0.0825,
  1.07,
  0.165,
  1.1525,
  0.2475,
  1.235,
  0.3275,
  1.3175,
  0.41,
  1.4,
  0.575,
  1.565,
  0.6575,
  1.6475,
  0.74,
  1.73,
  0.8225,
  1.8125,
  0.905,
  1.895,
  0.4925,
  1.4825,
  0,
  0.9875,
  0.0825,
  1.07,
  0.165,
  1.1525,
  0.2475,
  1.235,
  0.3275,
  1.3175,
  0.41,
  1.4,
  0.575,
  1.565,
  0.6575,
  1.6475,
  0.74,
  1.73,
  0.8225,
  1.8125,
  0.905,
  1.895,
  0.4925
 ],
 "SoftwareVersions": "syngo_MR_E11",
 "SpacingBetweenSlices": 2,
 "StationName": "AWP166078",
 "TaskName": "imagenet",
 "TotalReadoutTime": 0.0534586,
 "TxRefAmp": 211.566,
 "dcmmeta_affine": [
  [
   -2.0,
   0.0,
   0.0,
   106.0722885131836
  ],
  [
   0.0,
   1.9855146408081055,
   -0.24027368426322937,
   -89.5556869506836
  ],
  [
   0.0,
   0.24027368426322937,
   1.9855146408081055,
   -63.77243423461914
  ],
  [
   0.0,
   0.0,
   0.0,
   1.0
  ]
 ],
 "dcmmeta_reorient_transform": [
  [
   0.0,
   -1.0,
   0.0,
   99.0
  ],
  [
   1.0,
   0.0,
   0.0,
   0.0
  ],
  [
   0.0,
   0.0,
   1.0,
   0.0
  ],
  [
   0.0,
   0.0,
   0.0,
   1.0
  ]
 ],
 "dcmmeta_shape": [
  100,
  100,
  72,
  256
 ],
 "dcmmeta_slice_dim": 2,
 "dcmmeta_version": 0.6,
 "global": {
  "const": {
   "AcquisitionMatrix": [
    100,
    0,
    0,
    100
   ],
   "AngioFlag": "N",
   "BitsAllocated": 16,
   "BitsStored": 12,
   "BodyPartExamined": "BRAIN",
   "Columns": 900,
   "EchoNumbers": 1,
   "EchoTime": 34.0,
   "EchoTrainLength": 100,
   "FlipAngle": 90.0,
   "HighBit": 11,
   "ImageOrientationPatient": [
    1.0,
    0.0,
    0.0,
    0.0,
    0.99275734119381,
    -0.1201368449136
   ],
   "ImagePositionPatient": [
    -906.07228899002,
    -901.21614181488,
    56.124136984749
   ],
   "ImageType": [
    "ORIGINAL",
    "PRIMARY",
    "M",
    "ND",
    "MOSAIC"
   ],
   "ImagedNucleus": "1H",
   "ImagingFrequency": 123.257761,
   "InPlanePhaseEncodingDirection": "COL",
   "MRAcquisitionType": "2D",
   "MagneticFieldStrength": 3.0,
   "Manufacturer": "SIEMENS",
   "ManufacturerModelName": "Prisma",
   "Modality": "MR",
   "NumberOfAverages": 1.0,
   "NumberOfPhaseEncodingSteps": 100,
   "PercentPhaseFieldOfView": 100.0,
   "PercentSampling": 100.0,
   "PerformedProcedureStepStartTime": "150633.316000",
   "PhotometricInterpretation": "MONOCHROME2",
   "PixelBandwidth": 2380.0,
   "PixelRepresentation": 0,
   "PixelSpacing": [
    2.0,
    2.0
   ],
   "ProtocolName": "bold_100x100_s3_2x2x2_static_256",
   "RepetitionTime": 2000.0,
   "Rows": 900,
   "SAR": 0.08123632501449,
   "SamplesPerPixel": 1,
   "ScanOptions": "FS",
   "ScanningSequence": "EP",
   "SequenceName": "*epfid2d1_100",
   "SequenceVariant": "SK",
   "SeriesDescription": "bold_100x100_s3_2x2x2_static_256",
   "SeriesNumber": 10,
   "SeriesTime": "160209.453000",
   "SliceLocation": -52.551614853079,
   "SliceThickness": 2.0,
   "SmallestImagePixelValue": 0,
   "SoftwareVersions": "syngo MR E11",
   "SpacingBetweenSlices": 1.9999999963933,
   "SpecificCharacterSet": "ISO_IR 100",
   "StudyID": "1",
   "StudyTime": "150633.216000",
   "TransmitCoilName": "Body",
   "VariableFlipAngleFlag": "N",
   "WindowCenterWidthExplanation": "Algo1",
   "dBdt": 0.0
  },
  "slices": {}
 },
 "time": {
  "samples": {
   "AcquisitionNumber": [
    1,
    2,
    3,
    4,
    5,
    6,
    7,
    8,
    9,
    10,
    11,
    12,
    13,
    14,
    15,
    16,
    17,
    18,
    19,
    20,
    21,
    22,
    23,
    24,
    25,
    26,
    27,
    28,
    29,
    30,
    31,
    32,
    33,
    34,
    35,
    36,
    37,
    38,
    39,
    40,
    41,
    42,
    43,
    44,
    45,
    46,
    47,
    48,
    49,
    50,
    51,
    52,
    53,
    54,
    55,
    56,
    57,
    58,
    59,
    60,
    61,
    62,
    63,
    64,
    65,
    66,
    67,
    68,
    69,
    70,
    71,
    72,
    73,
    74,
    75,
    76,
    77,
    78,
    79,
    80,
    81,
    82,
    83,
    84,
    85,
    86,
    87,
    88,
    89,
    90,
    91,
    92,
    93,
    94,
    95,
    96,
    97,
    98,
    99,
    100,
    101,
    102,
    103,
    104,
    105,
    106,
    107,
    108,
    109,
    110,
    111,
    112,
    113,
    114,
    115,
    116,
    117,
    118,
    119,
    120,
    121,
    122,
    123,
    124,
    125,
    126,
    127,
    128,
    129,
    130,
    131,
    132,
    133,
    134,
    135,
    136,
    137,
    138,
    139,
    140,
    141,
    142,
    143,
    144,
    145,
    146,
    147,
    148,
    149,
    150,
    151,
    152,
    153,
    154,
    155,
    156,
    157,
    158,
    159,
    160,
    161,
    162,
    163,
    164,
    165,
    166,
    167,
    168,
    169,
    170,
    171,
    172,
    173,
    174,
    175,
    176,
    177,
    178,
    179,
    180,
    181,
    182,
    183,
    184,
    185,
    186,
    187,
    188,
    189,
    190,
    191,
    192,
    193,
    194,
    195,
    196,
    197,
    198,
    199,
    200,
    201,
    202,
    203,
    204,
    205,
    206,
    207,
    208,
    209,
    210,
    211,
    212,
    213,
    214,
    215,
    216,
    217,
    218,
    219,
    220,
    221,
    222,
    223,
    224,
    225,
    226,
    227,
    228,
    229,
    230,
    231,
    232,
    233,
    234,
    235,
    236,
    237,
    238,
    239,
    240,
    241,
    242,
    243,
    244,
    245,
    246,
    247,
    248,
    249,
    250,
    251,
    252,
    253,
    254,
    255,
    256
   ],
   "AcquisitionTime": [
    "160206.635000",
    "160208.635000",
    "160210.635000",
    "160212.635000",
    "160214.635000",
    "160216.635000",
    "160218.635000",
    "160220.635000",
    "160222.635000",
    "160224.635000",
    "160226.635000",
    "160228.635000",
    "160230.635000",
    "160232.635000",
    "160234.635000",
    "160236.635000",
    "160238.635000",
    "160240.635000",
    "160242.635000",
    "160244.635000",
    "160246.635000",
    "160248.635000",
    "160250.635000",
    "160252.635000",
    "160254.635000",
    "160256.635000",
    "160258.635000",
    "160300.635000",
    "160302.635000",
    "160304.635000",
    "160306.635000",
    "160308.635000",
    "160310.635000",
    "160312.635000",
    "160314.635000",
    "160316.635000",
    "160318.635000",
    "160320.635000",
    "160322.635000",
    "160324.635000",
    "160326.635000",
    "160328.635000",
    "160330.635000",
    "160332.635000",
    "160334.635000",
    "160336.635000",
    "160338.635000",
    "160340.635000",
    "160342.635000",
    "160344.635000",
    "160346.635000",
    "160348.635000",
    "160350.635000",
    "160352.635000",
    "160354.635000",
    "160356.635000",
    "160358.635000",
    "160400.635000",
    "160402.635000",
    "160404.635000",
    "160406.635000",
    "160408.635000",
    "160410.635000",
    "160412.635000",
    "160414.635000",
    "160416.635000",
    "160418.635000",
    "160420.635000",
    "160422.635000",
    "160424.635000",
    "160426.635000",
    "160428.635000",
    "160430.635000",
    "160432.635000",
    "160434.635000",
    "160436.635000",
    "160438.635000",
    "160440.635000",
    "160442.635000",
    "160444.635000",
    "160446.635000",
    "160448.635000",
    "160450.635000",
    "160452.635000",
    "160454.635000",
    "160456.635000",
    "160458.635000",
    "160500.635000",
    "160502.635000",
    "160504.635000",
    "160506.635000",
    "160508.635000",
    "160510.635000",
    "160512.635000",
    "160514.635000",
    "160516.635000",
    "160518.635000",
    "160520.635000",
    "160522.635000",
    "160524.635000",
    "160526.635000",
    "160528.635000",
    "160530.635000",
    "160532.635000",
    "160534.635000",
    "160536.635000",
    "160538.635000",
    "160540.635000",
    "160542.635000",
    "160544.635000",
    "160546.635000",
    "160548.635000",
    "160550.635000",
    "160552.635000",
    "160554.635000",
    "160556.635000",
    "160558.635000",
    "160600.635000",
    "160602.635000",
    "160604.635000",
    "160606.635000",
    "160608.635000",
    "160610.635000",
    "160612.635000",
    "160614.635000",
    "160616.635000",
    "160618.635000",
    "160620.635000",
    "160622.635000",
    "160624.635000",
    "160626.635000",
    "160628.635000",
    "160630.635000",
    "160632.635000",
    "160634.635000",
    "160636.635000",
    "160638.635000",
    "160640.635000",
    "160642.635000",
    "160644.635000",
    "160646.635000",
    "160648.635000",
    "160650.635000",
    "160652.635000",
    "160654.635000",
    "160656.635000",
    "160658.635000",
    "160700.635000",
    "160702.635000",
    "160704.635000",
    "160706.635000",
    "160708.635000",
    "160710.635000",
    "160712.635000",
    "160714.635000",
    "160716.635000",
    "160718.635000",
    "160720.635000",
    "160722.635000",
    "160724.635000",
    "160726.635000",
    "160728.635000",
    "160730.635000",
    "160732.635000",
    "160734.635000",
    "160736.635000",
    "160738.635000",
    "160740.635000",
    "160742.635000",
    "160744.635000",
    "160746.635000",
    "160748.635000",
    "160750.635000",
    "160752.635000",
    "160754.635000",
    "160756.635000",
    "160758.635000",
    "160800.635000",
    "160802.635000",
    "160804.635000",
    "160806.635000",
    "160808.635000",
    "160810.635000",
    "160812.635000",
    "160814.635000",
    "160816.635000",
    "160818.635000",
    "160820.635000",
    "160822.635000",
    "160824.635000",
    "160826.635000",
    "160828.635000",
    "160830.635000",
    "160832.635000",
    "160834.635000",
    "160836.635000",
    "160838.635000",
    "160840.635000",
    "160842.635000",
    "160844.635000",
    "160846.635000",
    "160848.635000",
    "160850.635000",
    "160852.635000",
    "160854.635000",
    "160856.635000",
    "160858.635000",
    "160900.635000",
    "160902.635000",
    "160904.635000",
    "160906.635000",
    "160908.635000",
    "160910.635000",
    "160912.635000",
    "160914.635000",
    "160916.635000",
    "160918.635000",
    "160920.635000",
    "160922.635000",
    "160924.635000",
    "160926.635000",
    "160928.635000",
    "160930.635000",
    "160932.635000",
    "160934.635000",
    "160936.635000",
    "160938.635000",
    "160940.635000",
    "160942.635000",
    "160944.635000",
    "160946.635000",
    "160948.635000",
    "160950.635000",
    "160952.635000",
    "160954.635000",
    "160956.635000",
    "160958.635000",
    "161000.635000",
    "161002.635000",
    "161004.635000",
    "161006.635000",
    "161008.635000",
    "161010.635000",
    "161012.635000",
    "161014.635000",
    "161016.635000",
    "161018.635000",
    "161020.635000",
    "161022.635000",
    "161024.635000",
    "161026.635000",
    "161028.635000",
    "161030.635000",
    "161032.635000",
    "161034.635000",
    "161036.635000"
   ],
   "ContentTime": [
    "160209.456000",
    "160210.952000",
    "160212.952000",
    "160214.951000",
    "160216.951000",
    "160218.951000",
    "160220.951000",
    "160222.951000",
    "160224.950000",
    "160226.952000",
    "160228.951000",
    "160230.951000",
    "160232.952000",
    "160234.951000",
    "160236.952000",
    "160238.951000",
    "160240.951000",
    "160242.951000",
    "160244.952000",
    "160246.952000",
    "160248.952000",
    "160250.952000",
    "160252.952000",
    "160254.952000",
    "160256.951000",
    "160258.952000",
    "160300.951000",
    "160302.952000",
    "160304.952000",
    "160306.952000",
    "160308.952000",
    "160310.952000",
    "160312.951000",
    "160314.952000",
    "160316.951000",
    "160318.951000",
    "160320.951000",
    "160322.952000",
    "160324.951000",
    "160326.951000",
    "160328.951000",
    "160330.952000",
    "160332.951000",
    "160334.950000",
    "160336.951000",
    "160338.952000",
    "160340.952000",
    "160342.951000",
    "160344.951000",
    "160346.952000",
    "160348.952000",
    "160350.952000",
    "160352.951000",
    "160354.951000",
    "160356.951000",
    "160358.952000",
    "160400.952000",
    "160402.951000",
    "160404.952000",
    "160406.952000",
    "160408.951000",
    "160410.951000",
    "160412.952000",
    "160414.952000",
    "160416.951000",
    "160418.951000",
    "160420.951000",
    "160422.951000",
    "160424.951000",
    "160426.952000",
    "160428.951000",
    "160430.952000",
    "160432.952000",
    "160434.951000",
    "160436.952000",
    "160438.951000",
    "160440.951000",
    "160442.951000",
    "160444.951000",
    "160446.952000",
    "160448.951000",
    "160450.952000",
    "160452.952000",
    "160454.952000",
    "160456.952000",
    "160458.952000",
    "160500.952000",
    "160502.951000",
    "160504.952000",
    "160506.952000",
    "160508.951000",
    "160510.952000",
    "160512.951000",
    "160514.952000",
    "160516.951000",
    "160518.952000",
    "160520.950000",
    "160522.951000",
    "160524.952000",
    "160526.951000",
    "160528.952000",
    "160530.952000",
    "160532.951000",
    "160534.952000",
    "160536.951000",
    "160538.951000",
    "160540.951000",
    "160542.951000",
    "160544.952000",
    "160546.951000",
    "160548.951000",
    "160550.951000",
    "160552.952000",
    "160554.951000",
    "160556.951000",
    "160558.952000",
    "160600.951000",
    "160602.951000",
    "160604.952000",
    "160606.952000",
    "160608.952000",
    "160610.951000",
    "160612.950000",
    "160614.952000",
    "160616.951000",
    "160618.951000",
    "160620.951000",
    "160622.952000",
    "160624.952000",
    "160626.951000",
    "160628.951000",
    "160630.951000",
    "160632.965000",
    "160634.952000",
    "160636.951000",
    "160638.951000",
    "160640.951000",
    "160642.951000",
    "160644.952000",
    "160646.951000",
    "160648.952000",
    "160650.951000",
    "160652.952000",
    "160654.951000",
    "160656.952000",
    "160658.952000",
    "160700.952000",
    "160702.952000",
    "160704.951000",
    "160706.951000",
    "160708.952000",
    "160710.952000",
    "160712.952000",
    "160714.951000",
    "160716.952000",
    "160718.952000",
    "160720.952000",
    "160722.951000",
    "160724.951000",
    "160726.951000",
    "160728.952000",
    "160730.952000",
    "160732.951000",
    "160734.952000",
    "160736.952000",
    "160738.952000",
    "160740.951000",
    "160742.952000",
    "160744.952000",
    "160746.951000",
    "160748.951000",
    "160750.951000",
    "160752.952000",
    "160754.951000",
    "160756.952000",
    "160758.952000",
    "160800.952000",
    "160802.952000",
    "160804.952000",
    "160806.952000",
    "160808.951000",
    "160810.952000",
    "160812.951000",
    "160814.950000",
    "160816.952000",
    "160818.952000",
    "160820.951000",
    "160822.952000",
    "160824.951000",
    "160826.951000",
    "160828.951000",
    "160830.952000",
    "160832.951000",
    "160834.952000",
    "160836.952000",
    "160838.952000",
    "160840.951000",
    "160842.952000",
    "160844.952000",
    "160846.952000",
    "160848.952000",
    "160850.951000",
    "160852.952000",
    "160854.952000",
    "160856.952000",
    "160858.952000",
    "160900.952000",
    "160902.952000",
    "160904.952000",
    "160906.952000",
    "160908.952000",
    "160910.952000",
    "160912.952000",
    "160914.952000",
    "160916.952000",
    "160918.951000",
    "160920.952000",
    "160922.952000",
    "160924.951000",
    "160926.951000",
    "160928.951000",
    "160930.951000",
    "160932.952000",
    "160934.952000",
    "160936.951000",
    "160938.951000",
    "160940.952000",
    "160942.951000",
    "160944.952000",
    "160946.951000",
    "160948.951000",
    "160950.952000",
    "160952.952000",
    "160954.951000",
    "160956.952000",
    "160958.951000",
    "161000.952000",
    "161002.952000",
    "161004.951000",
    "161006.952000",
    "161008.952000",
    "161010.951000",
    "161012.952000",
    "161014.951000",
    "161016.951000",
    "161018.952000",
    "161020.952000",
    "161022.951000",
    "161024.951000",
    "161026.952000",
    "161028.951000",
    "161030.952000",
    "161032.951000",
    "161034.951000",
    "161036.951000",
    "161038.657000"
   ],
   "InstanceCreationTime": [
    "160209.456000",
    "160210.952000",
    "160212.952000",
    "160214.951000",
    "160216.951000",
    "160218.951000",
    "160220.951000",
    "160222.951000",
    "160224.950000",
    "160226.952000",
    "160228.951000",
    "160230.951000",
    "160232.952000",
    "160234.951000",
    "160236.952000",
    "160238.951000",
    "160240.951000",
    "160242.951000",
    "160244.952000",
    "160246.952000",
    "160248.952000",
    "160250.952000",
    "160252.952000",
    "160254.952000",
    "160256.951000",
    "160258.952000",
    "160300.951000",
    "160302.952000",
    "160304.952000",
    "160306.952000",
    "160308.952000",
    "160310.952000",
    "160312.951000",
    "160314.952000",
    "160316.951000",
    "160318.951000",
    "160320.951000",
    "160322.952000",
    "160324.951000",
    "160326.951000",
    "160328.951000",
    "160330.952000",
    "160332.951000",
    "160334.950000",
    "160336.951000",
    "160338.952000",
    "160340.952000",
    "160342.951000",
    "160344.951000",
    "160346.952000",
    "160348.952000",
    "160350.952000",
    "160352.951000",
    "160354.951000",
    "160356.951000",
    "160358.952000",
    "160400.952000",
    "160402.951000",
    "160404.952000",
    "160406.952000",
    "160408.951000",
    "160410.951000",
    "160412.952000",
    "160414.952000",
    "160416.951000",
    "160418.951000",
    "160420.951000",
    "160422.951000",
    "160424.951000",
    "160426.952000",
    "160428.951000",
    "160430.952000",
    "160432.952000",
    "160434.951000",
    "160436.952000",
    "160438.951000",
    "160440.951000",
    "160442.951000",
    "160444.951000",
    "160446.952000",
    "160448.951000",
    "160450.952000",
    "160452.952000",
    "160454.952000",
    "160456.952000",
    "160458.952000",
    "160500.952000",
    "160502.951000",
    "160504.952000",
    "160506.952000",
    "160508.951000",
    "160510.952000",
    "160512.951000",
    "160514.952000",
    "160516.951000",
    "160518.952000",
    "160520.950000",
    "160522.951000",
    "160524.952000",
    "160526.951000",
    "160528.952000",
    "160530.952000",
    "160532.951000",
    "160534.952000",
    "160536.951000",
    "160538.951000",
    "160540.951000",
    "160542.951000",
    "160544.952000",
    "160546.951000",
    "160548.951000",
    "160550.951000",
    "160552.952000",
    "160554.951000",
    "160556.951000",
    "160558.952000",
    "160600.951000",
    "160602.951000",
    "160604.952000",
    "160606.952000",
    "160608.952000",
    "160610.951000",
    "160612.950000",
    "160614.952000",
    "160616.951000",
    "160618.951000",
    "160620.951000",
    "160622.952000",
    "160624.952000",
    "160626.951000",
    "160628.951000",
    "160630.951000",
    "160632.965000",
    "160634.952000",
    "160636.951000",
    "160638.951000",
    "160640.951000",
    "160642.951000",
    "160644.952000",
    "160646.951000",
    "160648.952000",
    "160650.951000",
    "160652.952000",
    "160654.951000",
    "160656.952000",
    "160658.952000",
    "160700.952000",
    "160702.952000",
    "160704.951000",
    "160706.951000",
    "160708.952000",
    "160710.952000",
    "160712.952000",
    "160714.951000",
    "160716.952000",
    "160718.952000",
    "160720.952000",
    "160722.951000",
    "160724.951000",
    "160726.951000",
    "160728.952000",
    "160730.952000",
    "160732.951000",
    "160734.952000",
    "160736.952000",
    "160738.952000",
    "160740.951000",
    "160742.952000",
    "160744.952000",
    "160746.951000",
    "160748.951000",
    "160750.951000",
    "160752.952000",
    "160754.951000",
    "160756.952000",
    "160758.952000",
    "160800.952000",
    "160802.952000",
    "160804.952000",
    "160806.952000",
    "160808.951000",
    "160810.952000",
    "160812.951000",
    "160814.950000",
    "160816.952000",
    "160818.952000",
    "160820.951000",
    "160822.952000",
    "160824.951000",
    "160826.951000",
    "160828.951000",
    "160830.952000",
    "160832.951000",
    "160834.952000",
    "160836.952000",
    "160838.952000",
    "160840.951000",
    "160842.952000",
    "160844.952000",
    "160846.952000",
    "160848.952000",
    "160850.951000",
    "160852.952000",
    "160854.952000",
    "160856.952000",
    "160858.952000",
    "160900.952000",
    "160902.952000",
    "160904.952000",
    "160906.952000",
    "160908.952000",
    "160910.952000",
    "160912.952000",
    "160914.952000",
    "160916.952000",
    "160918.951000",
    "160920.952000",
    "160922.952000",
    "160924.951000",
    "160926.951000",
    "160928.951000",
    "160930.951000",
    "160932.952000",
    "160934.952000",
    "160936.951000",
    "160938.951000",
    "160940.952000",
    "160942.951000",
    "160944.952000",
    "160946.951000",
    "160948.951000",
    "160950.952000",
    "160952.952000",
    "160954.951000",
    "160956.952000",
    "160958.951000",
    "161000.952000",
    "161002.952000",
    "161004.951000",
    "161006.952000",
    "161008.952000",
    "161010.951000",
    "161012.952000",
    "161014.951000",
    "161016.951000",
    "161018.952000",
    "161020.952000",
    "161022.951000",
    "161024.951000",
    "161026.952000",
    "161028.951000",
    "161030.952000",
    "161032.951000",
    "161034.951000",
    "161036.951000",
    "161038.657000"
   ],
   "InstanceNumber": [
    1,
    2,
    3,
    4,
    5,
    6,
    7,
    8,
    9,
    10,
    11,
    12,
    13,
    14,
    15,
    16,
    17,
    18,
    19,
    20,
    21,
    22,
    23,
    24,
    25,
    26,
    27,
    28,
    29,
    30,
    31,
    32,
    33,
    34,
    35,
    36,
    37,
    38,
    39,
    40,
    41,
    42,
    43,
    44,
    45,
    46,
    47,
    48,
    49,
    50,
    51,
    52,
    53,
    54,
    55,
    56,
    57,
    58,
    59,
    60,
    61,
    62,
    63,
    64,
    65,
    66,
    67,
    68,
    69,
    70,
    71,
    72,
    73,
    74,
    75,
    76,
    77,
    78,
    79,
    80,
    81,
    82,
    83,
    84,
    85,
    86,
    87,
    88,
    89,
    90,
    91,
    92,
    93,
    94,
    95,
    96,
    97,
    98,
    99,
    100,
    101,
    102,
    103,
    104,
    105,
    106,
    107,
    108,
    109,
    110,
    111,
    112,
    113,
    114,
    115,
    116,
    117,
    118,
    119,
    120,
    121,
    122,
    123,
    124,
    125,
    126,
    127,
    128,
    129,
    130,
    131,
    132,
    133,
    134,
    135,
    136,
    137,
    138,
    139,
    140,
    141,
    142,
    143,
    144,
    145,
    146,
    147,
    148,
    149,
    150,
    151,
    152,
    153,
    154,
    155,
    156,
    157,
    158,
    159,
    160,
    161,
    162,
    163,
    164,
    165,
    166,
    167,
    168,
    169,
    170,
    171,
    172,
    173,
    174,
    175,
    176,
    177,
    178,
    179,
    180,
    181,
    182,
    183,
    184,
    185,
    186,
    187,
    188,
    189,
    190,
    191,
    192,
    193,
    194,
    195,
    196,
    197,
    198,
    199,
    200,
    201,
    202,
    203,
    204,
    205,
    206,
    207,
    208,
    209,
    210,
    211,
    212,
    213,
    214,
    215,
    216,
    217,
    218,
    219,
    220,
    221,
    222,
    223,
    224,
    225,
    226,
    227,
    228,
    229,
    230,
    231,
    232,
    233,
    234,
    235,
    236,
    237,
    238,
    239,
    240,
    241,
    242,
    243,
    244,
    245,
    246,
    247,
    248,
    249,
    250,
    251,
    252,
    253,
    254,
    255,
    256
   ],
   "LargestImagePixelValue": [
    3689,
    3682,
    3689,
    3600,
    3618,
    3619,
    3641,
    3666,
    3713,
    3708,
    3622,
    3559,
    3671,
    3711,
    3678,
    3667,
    3683,
    3706,
    3704,
    3679,
    3701,
    3595,
    3543,
    3612,
    3647,
    3728,
    3734,
    3691,
    3644,
    3563,
    3610,
    3637,
    3635,
    3745,
    3750,
    3627,
    3670,
    3692,
    3701,
    3752,
    3683,
    3630,
    3591,
    3732,
    3737,
    3743,
    3718,
    3733,
    3699,
    3697,
    3699,
    3703,
    3733,
    3716,
    3697,
    3721,
    3746,
    3671,
    3669,
    3708,
    3746,
    3717,
    3734,
    3741,
    3691,
    3681,
    3594,
    3712,
    3574,
    3651,
    3605,
    3712,
    3691,
    3685,
    3750,
    3711,
    3720,
    3724,
    3644,
    3704,
    3668,
    3609,
    3583,
    3691,
    3613,
    3682,
    3533,
    3737,
    3696,
    3700,
    3647,
    3701,
    3571,
    3563,
    3825,
    3720,
    3721,
    3639,
    3713,
    3722,
    3642,
    3769,
    3739,
    3710,
    3768,
    3673,
    3766,
    3726,
    3757,
    3761,
    3626,
    3711,
    3727,
    3737,
    3746,
    3739,
    3693,
    3601,
    3738,
    3652,
    3759,
    3724,
    3732,
    3724,
    3741,
    3638,
    3697,
    3694,
    3729,
    3753,
    3646,
    3637,
    3706,
    3763,
    3721,
    3680,
    3622,
    3623,
    3770,
    3661,
    3630,
    3609,
    3545,
    3594,
    3530,
    3551,
    3653,
    3528,
    3575,
    3553,
    3559,
    3585,
    3556,
    3581,
    3585,
    3621,
    3558,
    3560,
    3579,
    3586,
    3556,
    3559,
    3626,
    3683,
    3648,
    3637,
    3672,
    3664,
    3696,
    3694,
    3697,
    3689,
    3653,
    3715,
    3706,
    3661,
    3704,
    3696,
    3722,
    3714,
    3594,
    3638,
    3676,
    3662,
    3606,
    3711,
    3705,
    3645,
    3662,
    3662,
    3723,
    3637,
    3683,
    3680,
    3724,
    3704,
    3660,
    3666,
    3724,
    3690,
    3729,
    3716,
    3666,
    3701,
    3684,
    3722,
    3641,
    3592,
    3724,
    3676,
    3696,
    3685,
    3679,
    3726,
    3666,
    3686,
    3674,
    3757,
    3713,
    3691,
    3649,
    3726,
    3534,
    3715,
    3679,
    3683,
    3686,
    3708,
    3711,
    3668,
    3689,
    3738,
    3635,
    3654,
    3695,
    3573,
    3695,
    3725,
    3671,
    3707,
    3711,
    3701,
    3618,
    3702,
    3706,
    3662,
    3627,
    3735,
    3672,
    3675,
    3632,
    3741,
    3699,
    3663,
    3692,
    3692
   ],
   "WindowCenter": [
    778.0,
    778.0,
    778.0,
    778.0,
    779.0,
    779.0,
    779.0,
    779.0,
    778.0,
    779.0,
    779.0,
    779.0,
    779.0,
    779.0,
    779.0,
    778.0,
    778.0,
    779.0,
    778.0,
    778.0,
    778.0,
    778.0,
    778.0,
    777.0,
    777.0,
    778.0,
    777.0,
    777.0,
    778.0,
    777.0,
    777.0,
    777.0,
    777.0,
    778.0,
    777.0,
    778.0,
    780.0,
    779.0,
    778.0,
    778.0,
    777.0,
    777.0,
    777.0,
    778.0,
    778.0,
    777.0,
    778.0,
    779.0,
    779.0,
    777.0,
    776.0,
    776.0,
    776.0,
    776.0,
    777.0,
    777.0,
    778.0,
    778.0,
    777.0,
    778.0,
    778.0,
    779.0,
    778.0,
    778.0,
    777.0,
    777.0,
    778.0,
    778.0,
    776.0,
    775.0,
    776.0,
    777.0,
    777.0,
    776.0,
    777.0,
    776.0,
    777.0,
    777.0,
    776.0,
    775.0,
    775.0,
    776.0,
    776.0,
    778.0,
    778.0,
    777.0,
    776.0,
    777.0,
    777.0,
    778.0,
    778.0,
    776.0,
    776.0,
    775.0,
    778.0,
    778.0,
    777.0,
    776.0,
    777.0,
    776.0,
    776.0,
    777.0,
    777.0,
    777.0,
    778.0,
    777.0,
    778.0,
    777.0,
    778.0,
    779.0,
    779.0,
    778.0,
    777.0,
    777.0,
    776.0,
    776.0,
    776.0,
    775.0,
    778.0,
    778.0,
    778.0,
    776.0,
    776.0,
    776.0,
    778.0,
