{
 "AcquisitionMatrixPE": 100,
 "AcquisitionNumber": 1,
 "AcquisitionTime": "15:09:45.045000",
 "BandwidthPerPixelPhaseEncode": 18.519,
 "BaseResolution": 100,
 "BodyPartExamined": "BRAIN",
 "ConsistencyInfo": "N4_VE11C_LATEST_20160120",
 "ConversionSoftware": "dcm2niix",
 "ConversionSoftwareVersion": "v1.0.20180622 GCC4.9.2",
 "DerivedVendorReportedEchoSpacing": 0.000539986,
 "DeviceSerialNumber": "166078",
 "DwellTime": 2.1e-06,
 "EchoTime": 0.034,
 "EchoTrainLength": 100,
 "EffectiveEchoSpacing": 0.000539986,
 "FlipAngle": 90,
 "ImageOrientationPatientDICOM": [
  1,
  0,
  0,
  0,
  0.992757,
  -0.120137
 ],
 "ImageType": [
  "ORIGINAL",
  "PRIMARY",
  "M",
  "ND",
  "MOSAIC"
 ],
 "InPlanePhaseEncodingDirectionDICOM": "COL",
 "InstitutionAddress": "Street_StreetNo_Bei_Jing_District_CN_ZIP",
 "InstitutionName": "BeiJing_Normal_University",
 "InstitutionalDepartmentName": "Department",
 "MRAcquisitionType": "2D",
 "MagneticFieldStrength": 3,
 "Manufacturer": "Siemens",
 "ManufacturersModelName": "Prisma",
 "Modality": "MR",
 "MultibandAccelerationFactor": 3,
 "PartialFourier": 1,
 "PatientPosition": "HFS",
 "PercentPhaseFOV": 100,
 "PhaseEncodingDirection": "j-",
 "PhaseEncodingSteps": 100,
 "PhaseResolution": 1,
 "PixelBandwidth": 2380,
 "ProcedureStepDescription": "BNU_P2018_64CH_Zhen.ZongLei",
 "ProtocolName": "bold_100x100_s3_2x2x2_static_256",
 "PulseSequenceDetails": "%SiemensSeq%_ep2d_bold",
 "ReceiveCoilActiveElements": "HC1-7;NC1",
 "ReceiveCoilName": "HeadNeck_64",
 "ReconMatrixPE": 100,
 "RepetitionTime": 2,
 "SAR": 0.0812363,
 "ScanOptions": "FS",
 "ScanningSequence": "EP",
 "SequenceName": "_epfid2d1_100",
 "SequenceVariant": "SK",
 "SeriesDescription": "bold_100x100_s3_2x2x2_static_256",
 "SeriesNumber": 3,
 "ShimSetting": [
  -5469,
  -11521,
  -1267,
  437,
  -7,
  -194,
  -148,
  39
 ],
 "SliceThickness": 2,
 "SliceTiming": [
  1.485,
  0,
  0.99,
  0.0825,
  1.0725,
  0.165,
  1.155,
  0.2475,
  1.2375,
  0.33,
  1.32,
  0.4125,
  1.4025,
  0.5775,
  1.5675,
  0.66,
  1.65,
  0.7425,
  1.7325,
  0.825,
  1.815,
  0.9075,
  1.8975,
  0.495,
  1.485,
  0,
  0.99,
  0.0825,
  1.0725,
  0.165,
  1.155,
  0.2475,
  1.2375,
  0.33,
  1.32,
  0.4125,
  1.4025,
  0.5775,
  1.5675,
  0.66,
  1.65,
  0.7425,
  1.7325,
  0.825,
  1.815,
  0.9075,
  1.8975,
  0.495,
  1.485,
  0,
  0.99,
  0.0825,
  1.0725,
  0.165,
  1.155,
  0.2475,
  1.2375,
  0.33,
  1.32,
  0.4125,
  1.4025,
  0.5775,
  1.5675,
  0.66,
  1.65,
  0.7425,
  1.7325,
  0.825,
  1.815,
  0.9075,
  1.8975,
  0.495
 ],
 "SoftwareVersions": "syngo_MR_E11",
 "SpacingBetweenSlices": 2,
 "StationName": "AWP166078",
 "TaskName": "imagenet",
 "TotalReadoutTime": 0.0534586,
 "TxRefAmp": 211.566,
 "dcmmeta_affine": [
  [
   -2.0,
   0.0,
   0.0,
   106.0722885131836
  ],
  [
   0.0,
   1.9855146408081055,
   -0.24027368426322937,
   -89.5556869506836
  ],
  [
   0.0,
   0.24027368426322937,
   1.9855146408081055,
   -63.77243423461914
  ],
  [
   0.0,
   0.0,
   0.0,
   1.0
  ]
 ],
 "dcmmeta_reorient_transform": [
  [
   0.0,
   -1.0,
   0.0,
   99.0
  ],
  [
   1.0,
   0.0,
   0.0,
   0.0
  ],
  [
   0.0,
   0.0,
   1.0,
   0.0
  ],
  [
   0.0,
   0.0,
   0.0,
   1.0
  ]
 ],
 "dcmmeta_shape": [
  100,
  100,
  72,
  256
 ],
 "dcmmeta_slice_dim": 2,
 "dcmmeta_version": 0.6,
 "global": {
  "const": {
   "AcquisitionMatrix": [
    100,
    0,
    0,
    100
   ],
   "AngioFlag": "N",
   "BitsAllocated": 16,
   "BitsStored": 12,
   "BodyPartExamined": "BRAIN",
   "Columns": 900,
   "EchoNumbers": 1,
   "EchoTime": 34.0,
   "EchoTrainLength": 100,
   "FlipAngle": 90.0,
   "HighBit": 11,
   "ImageOrientationPatient": [
    1.0,
    0.0,
    0.0,
    0.0,
    0.99275734119381,
    -0.1201368449136
   ],
   "ImagePositionPatient": [
    -906.07228899002,
    -901.21614181488,
    56.124136984749
   ],
   "ImageType": [
    "ORIGINAL",
    "PRIMARY",
    "M",
    "ND",
    "MOSAIC"
   ],
   "ImagedNucleus": "1H",
   "ImagingFrequency": 123.257753,
   "InPlanePhaseEncodingDirection": "COL",
   "MRAcquisitionType": "2D",
   "MagneticFieldStrength": 3.0,
   "Manufacturer": "SIEMENS",
   "ManufacturerModelName": "Prisma",
   "Modality": "MR",
   "NumberOfAverages": 1.0,
   "NumberOfPhaseEncodingSteps": 100,
   "PercentPhaseFieldOfView": 100.0,
   "PercentSampling": 100.0,
   "PerformedProcedureStepStartTime": "150633.316000",
   "PhotometricInterpretation": "MONOCHROME2",
   "PixelBandwidth": 2380.0,
   "PixelRepresentation": 0,
   "PixelSpacing": [
    2.0,
    2.0
   ],
   "ProtocolName": "bold_100x100_s3_2x2x2_static_256",
   "RepetitionTime": 2000.0,
   "Rows": 900,
   "SAR": 0.08123632501449,
   "SamplesPerPixel": 1,
   "ScanOptions": "FS",
   "ScanningSequence": "EP",
   "SequenceName": "*epfid2d1_100",
   "SequenceVariant": "SK",
   "SeriesDescription": "bold_100x100_s3_2x2x2_static_256",
   "SeriesNumber": 3,
   "SeriesTime": "150947.810000",
   "SliceLocation": -52.551614853079,
   "SliceThickness": 2.0,
   "SmallestImagePixelValue": 0,
   "SoftwareVersions": "syngo MR E11",
   "SpacingBetweenSlices": 1.9999999963933,
   "SpecificCharacterSet": "ISO_IR 100",
   "StudyID": "1",
   "StudyTime": "150633.216000",
   "TransmitCoilName": "Body",
   "VariableFlipAngleFlag": "N",
   "WindowCenterWidthExplanation": "Algo1",
   "dBdt": 0.0
  },
  "slices": {}
 },
 "time": {
  "samples": {
   "AcquisitionNumber": [
    1,
    2,
    3,
    4,
    5,
    6,
    7,
    8,
    9,
    10,
    11,
    12,
    13,
    14,
    15,
    16,
    17,
    18,
    19,
    20,
    21,
    22,
    23,
    24,
    25,
    26,
    27,
    28,
    29,
    30,
    31,
    32,
    33,
    34,
    35,
    36,
    37,
    38,
    39,
    40,
    41,
    42,
    43,
    44,
    45,
    46,
    47,
    48,
    49,
    50,
    51,
    52,
    53,
    54,
    55,
    56,
    57,
    58,
    59,
    60,
    61,
    62,
    63,
    64,
    65,
    66,
    67,
    68,
    69,
    70,
    71,
    72,
    73,
    74,
    75,
    76,
    77,
    78,
    79,
    80,
    81,
    82,
    83,
    84,
    85,
    86,
    87,
    88,
    89,
    90,
    91,
    92,
    93,
    94,
    95,
    96,
    97,
    98,
    99,
    100,
    101,
    102,
    103,
    104,
    105,
    106,
    107,
    108,
    109,
    110,
    111,
    112,
    113,
    114,
    115,
    116,
    117,
    118,
    119,
    120,
    121,
    122,
    123,
    124,
    125,
    126,
    127,
    128,
    129,
    130,
    131,
    132,
    133,
    134,
    135,
    136,
    137,
    138,
    139,
    140,
    141,
    142,
    143,
    144,
    145,
    146,
    147,
    148,
    149,
    150,
    151,
    152,
    153,
    154,
    155,
    156,
    157,
    158,
    159,
    160,
    161,
    162,
    163,
    164,
    165,
    166,
    167,
    168,
    169,
    170,
    171,
    172,
    173,
    174,
    175,
    176,
    177,
    178,
    179,
    180,
    181,
    182,
    183,
    184,
    185,
    186,
    187,
    188,
    189,
    190,
    191,
    192,
    193,
    194,
    195,
    196,
    197,
    198,
    199,
    200,
    201,
    202,
    203,
    204,
    205,
    206,
    207,
    208,
    209,
    210,
    211,
    212,
    213,
    214,
    215,
    216,
    217,
    218,
    219,
    220,
    221,
    222,
    223,
    224,
    225,
    226,
    227,
    228,
    229,
    230,
    231,
    232,
    233,
    234,
    235,
    236,
    237,
    238,
    239,
    240,
    241,
    242,
    243,
    244,
    245,
    246,
    247,
    248,
    249,
    250,
    251,
    252,
    253,
    254,
    255,
    256
   ],
   "AcquisitionTime": [
    "150945.045000",
    "150947.045000",
    "150949.045000",
    "150951.045000",
    "150953.045000",
    "150955.045000",
    "150957.045000",
    "150959.045000",
    "151001.045000",
    "151003.045000",
    "151005.045000",
    "151007.045000",
    "151009.045000",
    "151011.045000",
    "151013.045000",
    "151015.045000",
    "151017.045000",
    "151019.045000",
    "151021.045000",
    "151023.045000",
    "151025.045000",
    "151027.045000",
    "151029.045000",
    "151031.045000",
    "151033.045000",
    "151035.045000",
    "151037.045000",
    "151039.045000",
    "151041.045000",
    "151043.045000",
    "151045.045000",
    "151047.045000",
    "151049.045000",
    "151051.045000",
    "151053.045000",
    "151055.045000",
    "151057.045000",
    "151059.045000",
    "151101.045000",
    "151103.045000",
    "151105.045000",
    "151107.045000",
    "151109.045000",
    "151111.045000",
    "151113.045000",
    "151115.045000",
    "151117.045000",
    "151119.045000",
    "151121.045000",
    "151123.045000",
    "151125.045000",
    "151127.045000",
    "151129.045000",
    "151131.045000",
    "151133.045000",
    "151135.045000",
    "151137.045000",
    "151139.045000",
    "151141.045000",
    "151143.045000",
    "151145.045000",
    "151147.045000",
    "151149.045000",
    "151151.045000",
    "151153.045000",
    "151155.045000",
    "151157.045000",
    "151159.045000",
    "151201.045000",
    "151203.045000",
    "151205.045000",
    "151207.045000",
    "151209.045000",
    "151211.045000",
    "151213.045000",
    "151215.045000",
    "151217.045000",
    "151219.045000",
    "151221.045000",
    "151223.045000",
    "151225.045000",
    "151227.045000",
    "151229.045000",
    "151231.045000",
    "151233.045000",
    "151235.045000",
    "151237.045000",
    "151239.045000",
    "151241.045000",
    "151243.045000",
    "151245.045000",
    "151247.045000",
    "151249.045000",
    "151251.045000",
    "151253.045000",
    "151255.045000",
    "151257.045000",
    "151259.045000",
    "151301.045000",
    "151303.045000",
    "151305.045000",
    "151307.045000",
    "151309.045000",
    "151311.045000",
    "151313.045000",
    "151315.045000",
    "151317.045000",
    "151319.045000",
    "151321.045000",
    "151323.045000",
    "151325.045000",
    "151327.045000",
    "151329.045000",
    "151331.045000",
    "151333.045000",
    "151335.045000",
    "151337.045000",
    "151339.045000",
    "151341.045000",
    "151343.045000",
    "151345.045000",
    "151347.045000",
    "151349.045000",
    "151351.045000",
    "151353.045000",
    "151355.045000",
    "151357.045000",
    "151359.045000",
    "151401.045000",
    "151403.045000",
    "151405.045000",
    "151407.045000",
    "151409.045000",
    "151411.045000",
    "151413.045000",
    "151415.045000",
    "151417.045000",
    "151419.045000",
    "151421.045000",
    "151423.045000",
    "151425.045000",
    "151427.045000",
    "151429.045000",
    "151431.045000",
    "151433.045000",
    "151435.045000",
    "151437.045000",
    "151439.045000",
    "151441.045000",
    "151443.045000",
    "151445.045000",
    "151447.045000",
    "151449.045000",
    "151451.045000",
    "151453.045000",
    "151455.045000",
    "151457.045000",
    "151459.045000",
    "151501.045000",
    "151503.045000",
    "151505.045000",
    "151507.045000",
    "151509.045000",
    "151511.045000",
    "151513.045000",
    "151515.045000",
    "151517.045000",
    "151519.045000",
    "151521.045000",
    "151523.045000",
    "151525.045000",
    "151527.045000",
    "151529.045000",
    "151531.045000",
    "151533.045000",
    "151535.045000",
    "151537.045000",
    "151539.045000",
    "151541.045000",
    "151543.045000",
    "151545.045000",
    "151547.045000",
    "151549.045000",
    "151551.045000",
    "151553.045000",
    "151555.045000",
    "151557.045000",
    "151559.045000",
    "151601.045000",
    "151603.045000",
    "151605.045000",
    "151607.045000",
    "151609.045000",
    "151611.045000",
    "151613.045000",
    "151615.045000",
    "151617.045000",
    "151619.045000",
    "151621.045000",
    "151623.045000",
    "151625.045000",
    "151627.045000",
    "151629.045000",
    "151631.045000",
    "151633.045000",
    "151635.045000",
    "151637.045000",
    "151639.045000",
    "151641.045000",
    "151643.045000",
    "151645.045000",
    "151647.045000",
    "151649.045000",
    "151651.045000",
    "151653.045000",
    "151655.045000",
    "151657.045000",
    "151659.045000",
    "151701.045000",
    "151703.045000",
    "151705.045000",
    "151707.045000",
    "151709.045000",
    "151711.045000",
    "151713.045000",
    "151715.045000",
    "151717.045000",
    "151719.045000",
    "151721.045000",
    "151723.045000",
    "151725.045000",
    "151727.045000",
    "151729.045000",
    "151731.045000",
    "151733.045000",
    "151735.045000",
    "151737.045000",
    "151739.045000",
    "151741.045000",
    "151743.045000",
    "151745.045000",
    "151747.045000",
    "151749.045000",
    "151751.045000",
    "151753.045000",
    "151755.045000",
    "151757.045000",
    "151759.045000",
    "151801.045000",
    "151803.045000",
    "151805.045000",
    "151807.045000",
    "151809.045000",
    "151811.045000",
    "151813.045000",
    "151815.045000"
   ],
   "ContentTime": [
    "150947.814000",
    "150949.310000",
    "150951.309000",
    "150953.310000",
    "150955.310000",
    "150957.309000",
    "150959.310000",
    "151000.810000",
    "151003.309000",
    "151004.809000",
    "151006.810000",
    "151009.310000",
    "151011.309000",
    "151013.309000",
    "151014.810000",
    "151017.310000",
    "151019.309000",
    "151021.310000",
    "151023.309000",
    "151025.309000",
    "151026.809000",
    "151029.309000",
    "151031.309000",
    "151033.309000",
    "151035.310000",
    "151037.310000",
    "151039.309000",
    "151041.309000",
    "151042.809000",
    "151045.309000",
    "151047.309000",
    "151049.309000",
    "151051.310000",
    "151053.310000",
    "151055.310000",
    "151057.309000",
    "151059.309000",
    "151101.309000",
    "151102.809000",
    "151105.309000",
    "151107.309000",
    "151109.311000",
    "151111.309000",
    "151112.810000",
    "151115.310000",
    "151117.310000",
    "151119.309000",
    "151120.809000",
    "151123.310000",
    "151125.310000",
    "151127.310000",
    "151128.809000",
    "151131.310000",
    "151133.309000",
    "151135.309000",
    "151137.310000",
    "151139.309000",
    "151141.309000",
    "151143.309000",
    "151145.310000",
    "151147.309000",
    "151149.309000",
    "151150.810000",
    "151152.810000",
    "151154.810000",
    "151157.309000",
    "151159.309000",
    "151201.309000",
    "151203.310000",
    "151205.310000",
    "151207.309000",
    "151209.309000",
    "151210.809000",
    "151213.309000",
    "151214.810000",
    "151217.309000",
    "151219.310000",
    "151221.309000",
    "151222.809000",
    "151225.309000",
    "151226.809000",
    "151229.310000",
    "151231.309000",
    "151233.309000",
    "151235.309000",
    "151237.311000",
    "151239.309000",
    "151241.310000",
    "151243.309000",
    "151245.309000",
    "151247.310000",
    "151249.310000",
    "151250.809000",
    "151253.310000",
    "151255.311000",
    "151257.309000",
    "151259.309000",
    "151301.310000",
    "151303.309000",
    "151305.309000",
    "151307.309000",
    "151309.309000",
    "151311.310000",
    "151313.310000",
    "151315.310000",
    "151317.309000",
    "151318.809000",
    "151321.310000",
    "151323.309000",
    "151325.309000",
    "151327.310000",
    "151329.311000",
    "151331.310000",
    "151332.809000",
    "151334.809000",
    "151337.310000",
    "151339.310000",
    "151340.809000",
    "151343.310000",
    "151345.309000",
    "151347.311000",
    "151348.810000",
    "151351.309000",
    "151353.309000",
    "151355.310000",
    "151357.309000",
    "151359.309000",
    "151401.310000",
    "151403.310000",
    "151405.311000",
    "151407.310000",
    "151408.809000",
    "151411.310000",
    "151413.310000",
    "151415.310000",
    "151417.309000",
    "151419.310000",
    "151421.310000",
    "151423.310000",
    "151425.310000",
    "151427.310000",
    "151429.310000",
    "151431.310000",
    "151432.809000",
    "151435.310000",
    "151437.309000",
    "151438.810000",
    "151441.310000",
    "151443.310000",
    "151444.810000",
    "151447.309000",
    "151449.310000",
    "151451.310000",
    "151453.310000",
    "151455.310000",
    "151457.311000",
    "151459.310000",
    "151501.310000",
    "151503.310000",
    "151505.309000",
    "151507.309000",
    "151509.309000",
    "151511.309000",
    "151513.310000",
    "151515.311000",
    "151517.310000",
    "151519.310000",
    "151521.310000",
    "151523.310000",
    "151525.309000",
    "151526.809000",
    "151529.309000",
    "151531.310000",
    "151533.310000",
    "151535.310000",
    "151537.309000",
    "151539.309000",
    "151541.310000",
    "151543.309000",
    "151545.310000",
    "151547.310000",
    "151548.810000",
    "151551.310000",
    "151553.310000",
    "151555.310000",
    "151557.309000",
    "151559.310000",
    "151601.324000",
    "151602.810000",
    "151605.309000",
    "151607.312000",
    "151609.310000",
    "151610.810000",
    "151613.310000",
    "151614.810000",
    "151617.309000",
    "151619.309000",
    "151621.310000",
    "151623.309000",
    "151625.311000",
    "151627.309000",
    "151629.310000",
    "151631.309000",
    "151633.310000",
    "151635.310000",
    "151637.310000",
    "151639.310000",
    "151641.310000",
    "151642.810000",
    "151644.811000",
    "151647.309000",
    "151649.310000",
    "151651.309000",
    "151653.310000",
    "151655.309000",
    "151657.309000",
    "151658.809000",
    "151701.310000",
    "151702.809000",
    "151704.809000",
    "151707.310000",
    "151709.310000",
    "151711.310000",
    "151713.309000",
    "151715.310000",
    "151717.311000",
    "151719.310000",
    "151721.310000",
    "151722.809000",
    "151724.810000",
    "151727.309000",
    "151729.310000",
    "151731.310000",
    "151733.310000",
    "151734.810000",
    "151737.310000",
    "151739.310000",
    "151740.810000",
    "151742.810000",
    "151744.809000",
    "151747.310000",
    "151749.309000",
    "151751.311000",
    "151752.810000",
    "151755.310000",
    "151756.810000",
    "151759.310000",
    "151801.309000",
    "151802.810000",
    "151804.810000",
    "151807.310000",
    "151809.311000",
    "151811.310000",
    "151813.310000",
    "151815.310000",
    "151816.831000"
   ],
   "InstanceCreationTime": [
    "150947.814000",
    "150949.310000",
    "150951.309000",
    "150953.310000",
    "150955.310000",
    "150957.309000",
    "150959.310000",
    "151000.810000",
    "151003.309000",
    "151004.809000",
    "151006.810000",
    "151009.310000",
    "151011.309000",
    "151013.309000",
    "151014.810000",
    "151017.310000",
    "151019.309000",
    "151021.310000",
    "151023.309000",
    "151025.309000",
    "151026.809000",
    "151029.309000",
    "151031.309000",
    "151033.309000",
    "151035.310000",
    "151037.310000",
    "151039.309000",
    "151041.309000",
    "151042.809000",
    "151045.309000",
    "151047.309000",
    "151049.309000",
    "151051.310000",
    "151053.310000",
    "151055.310000",
    "151057.309000",
    "151059.309000",
    "151101.309000",
    "151102.809000",
    "151105.309000",
    "151107.309000",
    "151109.311000",
    "151111.309000",
    "151112.810000",
    "151115.310000",
    "151117.310000",
    "151119.309000",
    "151120.809000",
    "151123.310000",
    "151125.310000",
    "151127.310000",
    "151128.809000",
    "151131.310000",
    "151133.309000",
    "151135.309000",
    "151137.310000",
    "151139.309000",
    "151141.309000",
    "151143.309000",
    "151145.310000",
    "151147.309000",
    "151149.309000",
    "151150.810000",
    "151152.810000",
    "151154.810000",
    "151157.309000",
    "151159.309000",
    "151201.309000",
    "151203.310000",
    "151205.310000",
    "151207.309000",
    "151209.309000",
    "151210.809000",
    "151213.309000",
    "151214.810000",
    "151217.309000",
    "151219.310000",
    "151221.309000",
    "151222.809000",
    "151225.309000",
    "151226.809000",
    "151229.310000",
    "151231.309000",
    "151233.309000",
    "151235.309000",
    "151237.311000",
    "151239.309000",
    "151241.310000",
    "151243.309000",
    "151245.309000",
    "151247.310000",
    "151249.310000",
    "151250.809000",
    "151253.310000",
    "151255.311000",
    "151257.309000",
    "151259.309000",
    "151301.310000",
    "151303.309000",
    "151305.309000",
    "151307.309000",
    "151309.309000",
    "151311.310000",
    "151313.310000",
    "151315.310000",
    "151317.309000",
    "151318.809000",
    "151321.310000",
    "151323.309000",
    "151325.309000",
    "151327.310000",
    "151329.311000",
    "151331.310000",
    "151332.809000",
    "151334.809000",
    "151337.310000",
    "151339.310000",
    "151340.809000",
    "151343.310000",
    "151345.309000",
    "151347.311000",
    "151348.810000",
    "151351.309000",
    "151353.309000",
    "151355.310000",
    "151357.309000",
    "151359.309000",
    "151401.310000",
    "151403.310000",
    "151405.311000",
    "151407.310000",
    "151408.809000",
    "151411.310000",
    "151413.310000",
    "151415.310000",
    "151417.309000",
    "151419.310000",
    "151421.310000",
    "151423.310000",
    "151425.310000",
    "151427.310000",
    "151429.310000",
    "151431.310000",
    "151432.809000",
    "151435.310000",
    "151437.309000",
    "151438.810000",
    "151441.310000",
    "151443.310000",
    "151444.810000",
    "151447.309000",
    "151449.310000",
    "151451.310000",
    "151453.310000",
    "151455.310000",
    "151457.311000",
    "151459.310000",
    "151501.310000",
    "151503.310000",
    "151505.309000",
    "151507.309000",
    "151509.309000",
    "151511.309000",
    "151513.310000",
    "151515.311000",
    "151517.310000",
    "151519.310000",
    "151521.310000",
    "151523.310000",
    "151525.309000",
    "151526.809000",
    "151529.309000",
    "151531.310000",
    "151533.310000",
    "151535.310000",
    "151537.309000",
    "151539.309000",
    "151541.310000",
    "151543.309000",
    "151545.310000",
    "151547.310000",
    "151548.810000",
    "151551.310000",
    "151553.310000",
    "151555.310000",
    "151557.309000",
    "151559.310000",
    "151601.324000",
    "151602.810000",
    "151605.309000",
    "151607.312000",
    "151609.310000",
    "151610.810000",
    "151613.310000",
    "151614.810000",
    "151617.309000",
    "151619.309000",
    "151621.310000",
    "151623.309000",
    "151625.311000",
    "151627.309000",
    "151629.310000",
    "151631.309000",
    "151633.310000",
    "151635.310000",
    "151637.310000",
    "151639.310000",
    "151641.310000",
    "151642.810000",
    "151644.811000",
    "151647.309000",
    "151649.310000",
    "151651.309000",
    "151653.310000",
    "151655.309000",
    "151657.309000",
    "151658.809000",
    "151701.310000",
    "151702.809000",
    "151704.809000",
    "151707.310000",
    "151709.310000",
    "151711.310000",
    "151713.309000",
    "151715.310000",
    "151717.311000",
    "151719.310000",
    "151721.310000",
    "151722.809000",
    "151724.810000",
    "151727.309000",
    "151729.310000",
    "151731.310000",
    "151733.310000",
    "151734.810000",
    "151737.310000",
    "151739.310000",
    "151740.810000",
    "151742.810000",
    "151744.809000",
    "151747.310000",
    "151749.309000",
    "151751.311000",
    "151752.810000",
    "151755.310000",
    "151756.810000",
    "151759.310000",
    "151801.309000",
    "151802.810000",
    "151804.810000",
    "151807.310000",
    "151809.311000",
    "151811.310000",
    "151813.310000",
    "151815.310000",
    "151816.831000"
   ],
   "InstanceNumber": [
    1,
    2,
    3,
    4,
    5,
    6,
    7,
    8,
    9,
    10,
    11,
    12,
    13,
    14,
    15,
    16,
    17,
    18,
    19,
    20,
    21,
    22,
    23,
    24,
    25,
    26,
    27,
    28,
    29,
    30,
    31,
    32,
    33,
    34,
    35,
    36,
    37,
    38,
    39,
    40,
    41,
    42,
    43,
    44,
    45,
    46,
    47,
    48,
    49,
    50,
    51,
    52,
    53,
    54,
    55,
    56,
    57,
    58,
    59,
    60,
    61,
    62,
    63,
    64,
    65,
    66,
    67,
    68,
    69,
    70,
    71,
    72,
    73,
    74,
    75,
    76,
    77,
    78,
    79,
    80,
    81,
    82,
    83,
    84,
    85,
    86,
    87,
    88,
    89,
    90,
    91,
    92,
    93,
    94,
    95,
    96,
    97,
    98,
    99,
    100,
    101,
    102,
    103,
    104,
    105,
    106,
    107,
    108,
    109,
    110,
    111,
    112,
    113,
    114,
    115,
    116,
    117,
    118,
    119,
    120,
    121,
    122,
    123,
    124,
    125,
    126,
    127,
    128,
    129,
    130,
    131,
    132,
    133,
    134,
    135,
    136,
    137,
    138,
    139,
    140,
    141,
    142,
    143,
    144,
    145,
    146,
    147,
    148,
    149,
    150,
    151,
    152,
    153,
    154,
    155,
    156,
    157,
    158,
    159,
    160,
    161,
    162,
    163,
    164,
    165,
    166,
    167,
    168,
    169,
    170,
    171,
    172,
    173,
    174,
    175,
    176,
    177,
    178,
    179,
    180,
    181,
    182,
    183,
    184,
    185,
    186,
    187,
    188,
    189,
    190,
    191,
    192,
    193,
    194,
    195,
    196,
    197,
    198,
    199,
    200,
    201,
    202,
    203,
    204,
    205,
    206,
    207,
    208,
    209,
    210,
    211,
    212,
    213,
    214,
    215,
    216,
    217,
    218,
    219,
    220,
    221,
    222,
    223,
    224,
    225,
    226,
    227,
    228,
    229,
    230,
    231,
    232,
    233,
    234,
    235,
    236,
    237,
    238,
    239,
    240,
    241,
    242,
    243,
    244,
    245,
    246,
    247,
    248,
    249,
    250,
    251,
    252,
    253,
    254,
    255,
    256
   ],
   "LargestImagePixelValue": [
    3560,
    3550,
    3565,
    3523,
    3490,
    3496,
    3489,
    3489,
    3506,
    3528,
    3521,
    3553,
    3511,
    3527,
    3529,
    3450,
    3504,
    3526,
    3497,
    3454,
    3458,
    3458,
    3473,
    3504,
    3537,
    3560,
    3528,
    3543,
    3518,
    3518,
    3521,
    3538,
    3497,
    3541,
    3534,
    3525,
    3521,
    3501,
    3543,
    3509,
    3562,
    3574,
    3517,
    3514,
    3506,
    3521,
    3558,
    3577,
    3540,
    3581,
    3498,
    3560,
    3545,
    3534,
    3474,
    3554,
    3521,
    3521,
    3495,
    3527,
    3472,
    3530,
    3533,
    3552,
    3517,
    3450,
    3521,
    3465,
    3539,
    3522,
    3534,
    3476,
    3505,
    3505,
    3530,
    3522,
    3506,
    3500,
    3544,
    3458,
    3496,
    3463,
    3508,
    3496,
    3541,
    3512,
    3495,
    3463,
    3488,
    3525,
    3534,
    3508,
    3484,
    3479,
    3511,
    3558,
    3526,
    3531,
    3509,
    3529,
    3522,
    3579,
    3539,
    3484,
    3511,
    3523,
    3549,
    3527,
    3555,
    3472,
    3466,
    3499,
    3518,
    3550,
    3479,
    3544,
    3543,
    3576,
    3548,
    3543,
    3533,
    3521,
    3485,
    3534,
    3503,
    3520,
    3535,
    3481,
    3509,
    3508,
    3470,
    3543,
    3499,
    3594,
    3529,
    3557,
    3530,
    3530,
    3525,
    3531,
    3529,
    3510,
    3500,
    3524,
    3427,
    3505,
    3466,
    3579,
    3440,
    3544,
    3442,
    3567,
    3501,
    3546,
    3488,
    3441,
    3494,
    3524,
    3512,
    3481,
    3572,
    3470,
    3466,
    3540,
    3507,
    3551,
    3526,
    3516,
    3474,
    3465,
    3488,
    3549,
    3527,
    3431,
    3542,
    3464,
    3517,
    3386,
    3544,
    3490,
    3485,
    3434,
    3501,
    3468,
    3391,
    3499,
    3455,
    3558,
    3474,
    3469,
    3460,
    3443,
    3448,
    3423,
    3446,
    3418,
    3406,
    3536,
    3411,
    3527,
    3389,
    3385,
    3446,
    3527,
    3408,
    3462,
    3390,
    3400,
    3525,
    3398,
    3513,
    3457,
    3505,
    3471,
    3462,
    3430,
    3421,
    3467,
    3477,
    3476,
    3505,
    3456,
    3521,
    3433,
    3431,
    3429,
    3528,
    3432,
    3420,
    3429,
    3485,
    3423,
    3496,
    3413,
    3452,
    3442,
    3414,
    3427,
    3480,
    3482,
    3421,
    3452,
    3445,
    3447,
    3371,
    3496,
    3393,
    3488,
    3380,
    3419,
    3427,
    3465,
    3389,
    3363,
    3429,
    3382
   ],
   "WindowCenter": [
    771.0,
    771.0,
    770.0,
    770.0,
    770.0,
    770.0,
    769.0,
    769.0,
    770.0,
    771.0,
    772.0,
    773.0,
    772.0,
    770.0,
    769.0,
    770.0,
    769.0,
    769.0,
    769.0,
    770.0,
    769.0,
    770.0,
    770.0,
    770.0,
    770.0,
    770.0,
    771.0,
    771.0,
    771.0,
    771.0,
    771.0,
    771.0,
    770.0,
    770.0,
    770.0,
    770.0,
    770.0,
    771.0,
    771.0,
    771.0,
    771.0,
    772.0,
    773.0,
    772.0,
    772.0,
    772.0,
    771.0,
    771.0,
    771.0,
    771.0,
    771.0,
    772.0,
    773.0,
    772.0,
    771.0,
    770.0,
    770.0,
    770.0,
    770.0,
    771.0,
    771.0,
    772.0,
    771.0,
    771.0,
    771.0,
    771.0,
    771.0,
    770.0,
    771.0,
    771.0,
    772.0,
    771.0,
    772.0,
    772.0,
    771.0,
    770.0,
    770.0,
    771.0,
    772.0,
    772.0,
    772.0,
    771.0,
    771.0,
    771.0,
    772.0,
    771.0,
    772.0,
    772.0,
    772.0,
    772.0,
    773.0,
    773.0,
    772.0,
    771.0,
    772.0,
    773.0,
    773.0,
    773.0,
    772.0,
    773.0,
    772.0,
    773.0,
    773.0,
    772.0,
    772.0,
    772.0,
    772.0,
    772.0,
    772.0,
    773.0,
    773.0,
    773.0,
    773.0,
    774.0,
    773.0,
    773.0,
    771.0,
    773.0,
    773.0,
    773.0,
    774.0,
    774.0,
    773.0,
    774.0,
    773.0,
