{
 "AcquisitionMatrixPE": 100,
 "AcquisitionNumber": 1,
 "AcquisitionTime": "12:28:4.942500",
 "BandwidthPerPixelPhaseEncode": 18.519,
 "BaseResolution": 100,
 "BodyPartExamined": "BRAIN",
 "ConsistencyInfo": "N4_VE11C_LATEST_20160120",
 "ConversionSoftware": "dcm2niix",
 "ConversionSoftwareVersion": "v1.0.20180622 GCC4.9.2",
 "DerivedVendorReportedEchoSpacing": 0.000539986,
 "DeviceSerialNumber": "166078",
 "DwellTime": 2.1e-06,
 "EchoTime": 0.034,
 "EchoTrainLength": 100,
 "EffectiveEchoSpacing": 0.000539986,
 "FlipAngle": 90,
 "ImageOrientationPatientDICOM": [
  0.997684,
  0,
  0.0680153,
  0,
  1,
  0
 ],
 "ImageType": [
  "ORIGINAL",
  "PRIMARY",
  "M",
  "ND",
  "MOSAIC"
 ],
 "InPlanePhaseEncodingDirectionDICOM": "COL",
 "InstitutionAddress": "Street_StreetNo_Bei_Jing_District_CN_ZIP",
 "InstitutionName": "BeiJing_Normal_University",
 "InstitutionalDepartmentName": "Department",
 "MRAcquisitionType": "2D",
 "MagneticFieldStrength": 3,
 "Manufacturer": "Siemens",
 "ManufacturersModelName": "Prisma",
 "Modality": "MR",
 "MultibandAccelerationFactor": 3,
 "PartialFourier": 1,
 "PatientPosition": "HFS",
 "PercentPhaseFOV": 100,
 "PhaseEncodingDirection": "j-",
 "PhaseEncodingSteps": 100,
 "PhaseResolution": 1,
 "PixelBandwidth": 2380,
 "ProcedureStepDescription": "BNU_P2018_64CH_Zhen.ZongLei",
 "ProtocolName": "bold_100x100_s3_2x2x2_static_256",
 "PulseSequenceDetails": "%SiemensSeq%_ep2d_bold",
 "ReceiveCoilActiveElements": "HC1-7;NC1",
 "ReceiveCoilName": "HeadNeck_64",
 "ReconMatrixPE": 100,
 "RepetitionTime": 2,
 "SAR": 0.0766288,
 "ScanOptions": "FS",
 "ScanningSequence": "EP",
 "SequenceName": "_epfid2d1_100",
 "SequenceVariant": "SK",
 "SeriesDescription": "bold_100x100_s3_2x2x2_static_256",
 "SeriesNumber": 12,
 "ShimSetting": [
  -5446,
  -11509,
  -1248,
  145,
  -131,
  -216,
  -156,
  55
 ],
 "SliceThickness": 2,
 "SliceTiming": [
  1.485,
  0,
  0.99,
  0.0825,
  1.0725,
  0.165,
  1.155,
  0.2475,
  1.2375,
  0.33,
  1.32,
  0.4125,
  1.4025,
  0.5775,
  1.5675,
  0.66,
  1.65,
  0.7425,
  1.7325,
  0.825,
  1.815,
  0.9075,
  1.8975,
  0.495,
  1.485,
  0,
  0.99,
  0.0825,
  1.0725,
  0.165,
  1.155,
  0.2475,
  1.2375,
  0.33,
  1.32,
  0.4125,
  1.4025,
  0.5775,
  1.5675,
  0.66,
  1.65,
  0.7425,
  1.7325,
  0.825,
  1.815,
  0.9075,
  1.8975,
  0.495,
  1.485,
  0,
  0.99,
  0.0825,
  1.0725,
  0.165,
  1.155,
  0.2475,
  1.2375,
  0.33,
  1.32,
  0.4125,
  1.4025,
  0.5775,
  1.5675,
  0.66,
  1.65,
  0.7425,
  1.7325,
  0.825,
  1.815,
  0.9075,
  1.8975,
  0.495
 ],
 "SoftwareVersions": "syngo_MR_E11",
 "SpacingBetweenSlices": 2,
 "StationName": "AWP166078",
 "TaskName": "imagenet",
 "TotalReadoutTime": 0.0534586,
 "TxRefAmp": 244.878,
 "dcmmeta_affine": [
  [
   -1.9953685998916626,
   0.0,
   0.13603058457374573,
   96.28874206542969
  ],
  [
   0.0,
   2.0,
   0.0,
   -89.23373413085938
  ],
  [
   0.13603058457374573,
   0.0,
   1.995368480682373,
   -75.16963958740234
  ],
  [
   0.0,
   0.0,
   0.0,
   1.0
  ]
 ],
 "dcmmeta_reorient_transform": [
  [
   0.0,
   -1.0,
   0.0,
   99.0
  ],
  [
   1.0,
   0.0,
   0.0,
   0.0
  ],
  [
   0.0,
   0.0,
   1.0,
   0.0
  ],
  [
   0.0,
   0.0,
   0.0,
   1.0
  ]
 ],
 "dcmmeta_shape": [
  100,
  100,
  72,
  256
 ],
 "dcmmeta_slice_dim": 2,
 "dcmmeta_version": 0.6,
 "global": {
  "const": {
   "AcquisitionMatrix": [
    100,
    0,
    0,
    100
   ],
   "AngioFlag": "N",
   "BitsAllocated": 16,
   "BitsStored": 12,
   "BodyPartExamined": "BRAIN",
   "Columns": 900,
   "EchoNumbers": 1,
   "EchoTime": 34.0,
   "EchoTrainLength": 100,
   "FlipAngle": 90.0,
   "HighBit": 11,
   "ImageOrientationPatient": [
    0.99768427877948,
    0.0,
    0.06801529148854,
    0.0,
    1.0,
    0.0
   ],
   "ImagePositionPatient": [
    -894.43616297238,
    -908.76626491547,
    -129.58187299642
   ],
   "ImageType": [
    "ORIGINAL",
    "PRIMARY",
    "M",
    "ND",
    "MOSAIC"
   ],
   "ImagedNucleus": "1H",
   "ImagingFrequency": 123.257776,
   "InPlanePhaseEncodingDirection": "COL",
   "MRAcquisitionType": "2D",
   "MagneticFieldStrength": 3.0,
   "Manufacturer": "SIEMENS",
   "ManufacturerModelName": "Prisma",
   "Modality": "MR",
   "NumberOfAverages": 1.0,
   "NumberOfPhaseEncodingSteps": 100,
   "PercentPhaseFieldOfView": 100.0,
   "PercentSampling": 100.0,
   "PerformedProcedureStepStartTime": "111400.318000",
   "PhotometricInterpretation": "MONOCHROME2",
   "PixelBandwidth": 2380.0,
   "PixelRepresentation": 0,
   "PixelSpacing": [
    2.0,
    2.0
   ],
   "ProtocolName": "bold_100x100_s3_2x2x2_static_256",
   "RepetitionTime": 2000.0,
   "Rows": 900,
   "SAR": 0.07662884894547,
   "SamplesPerPixel": 1,
   "ScanOptions": "FS",
   "ScanningSequence": "EP",
   "SequenceName": "*epfid2d1_100",
   "SequenceVariant": "SK",
   "SeriesDescription": "bold_100x100_s3_2x2x2_static_256",
   "SeriesNumber": 12,
   "SeriesTime": "122806.971000",
   "SliceLocation": -68.446461160874,
   "SliceThickness": 2.0,
   "SmallestImagePixelValue": 0,
   "SoftwareVersions": "syngo MR E11",
   "SpacingBetweenSlices": 1.9999999697708,
   "SpecificCharacterSet": "ISO_IR 100",
   "StudyID": "1",
   "StudyTime": "111400.216000",
   "TransmitCoilName": "Body",
   "VariableFlipAngleFlag": "N",
   "WindowCenterWidthExplanation": "Algo1",
   "dBdt": 0.0
  },
  "slices": {}
 },
 "time": {
  "samples": {
   "AcquisitionNumber": [
    1,
    2,
    3,
    4,
    5,
    6,
    7,
    8,
    9,
    10,
    11,
    12,
    13,
    14,
    15,
    16,
    17,
    18,
    19,
    20,
    21,
    22,
    23,
    24,
    25,
    26,
    27,
    28,
    29,
    30,
    31,
    32,
    33,
    34,
    35,
    36,
    37,
    38,
    39,
    40,
    41,
    42,
    43,
    44,
    45,
    46,
    47,
    48,
    49,
    50,
    51,
    52,
    53,
    54,
    55,
    56,
    57,
    58,
    59,
    60,
    61,
    62,
    63,
    64,
    65,
    66,
    67,
    68,
    69,
    70,
    71,
    72,
    73,
    74,
    75,
    76,
    77,
    78,
    79,
    80,
    81,
    82,
    83,
    84,
    85,
    86,
    87,
    88,
    89,
    90,
    91,
    92,
    93,
    94,
    95,
    96,
    97,
    98,
    99,
    100,
    101,
    102,
    103,
    104,
    105,
    106,
    107,
    108,
    109,
    110,
    111,
    112,
    113,
    114,
    115,
    116,
    117,
    118,
    119,
    120,
    121,
    122,
    123,
    124,
    125,
    126,
    127,
    128,
    129,
    130,
    131,
    132,
    133,
    134,
    135,
    136,
    137,
    138,
    139,
    140,
    141,
    142,
    143,
    144,
    145,
    146,
    147,
    148,
    149,
    150,
    151,
    152,
    153,
    154,
    155,
    156,
    157,
    158,
    159,
    160,
    161,
    162,
    163,
    164,
    165,
    166,
    167,
    168,
    169,
    170,
    171,
    172,
    173,
    174,
    175,
    176,
    177,
    178,
    179,
    180,
    181,
    182,
    183,
    184,
    185,
    186,
    187,
    188,
    189,
    190,
    191,
    192,
    193,
    194,
    195,
    196,
    197,
    198,
    199,
    200,
    201,
    202,
    203,
    204,
    205,
    206,
    207,
    208,
    209,
    210,
    211,
    212,
    213,
    214,
    215,
    216,
    217,
    218,
    219,
    220,
    221,
    222,
    223,
    224,
    225,
    226,
    227,
    228,
    229,
    230,
    231,
    232,
    233,
    234,
    235,
    236,
    237,
    238,
    239,
    240,
    241,
    242,
    243,
    244,
    245,
    246,
    247,
    248,
    249,
    250,
    251,
    252,
    253,
    254,
    255,
    256
   ],
   "AcquisitionTime": [
    "122804.942500",
    "122806.942500",
    "122808.942500",
    "122810.942500",
    "122812.942500",
    "122814.942500",
    "122816.942500",
    "122818.942500",
    "122820.942500",
    "122822.942500",
    "122824.942500",
    "122826.942500",
    "122828.942500",
    "122830.942500",
    "122832.942500",
    "122834.942500",
    "122836.942500",
    "122838.942500",
    "122840.942500",
    "122842.942500",
    "122844.942500",
    "122846.942500",
    "122848.942500",
    "122850.942500",
    "122852.942500",
    "122854.942500",
    "122856.942500",
    "122858.942500",
    "122900.942500",
    "122902.942500",
    "122904.942500",
    "122906.942500",
    "122908.942500",
    "122910.942500",
    "122912.942500",
    "122914.942500",
    "122916.942500",
    "122918.942500",
    "122920.942500",
    "122922.942500",
    "122924.942500",
    "122926.942500",
    "122928.942500",
    "122930.942500",
    "122932.942500",
    "122934.942500",
    "122936.942500",
    "122938.942500",
    "122940.942500",
    "122942.942500",
    "122944.942500",
    "122946.942500",
    "122948.942500",
    "122950.942500",
    "122952.942500",
    "122954.942500",
    "122956.942500",
    "122958.942500",
    "123000.942500",
    "123002.942500",
    "123004.942500",
    "123006.942500",
    "123008.942500",
    "123010.942500",
    "123012.942500",
    "123014.942500",
    "123016.942500",
    "123018.942500",
    "123020.942500",
    "123022.942500",
    "123024.942500",
    "123026.942500",
    "123028.942500",
    "123030.942500",
    "123032.942500",
    "123034.942500",
    "123036.942500",
    "123038.942500",
    "123040.942500",
    "123042.942500",
    "123044.942500",
    "123046.942500",
    "123048.942500",
    "123050.942500",
    "123052.942500",
    "123054.942500",
    "123056.942500",
    "123058.942500",
    "123100.942500",
    "123102.942500",
    "123104.942500",
    "123106.942500",
    "123108.942500",
    "123110.942500",
    "123112.942500",
    "123114.942500",
    "123116.942500",
    "123118.942500",
    "123120.942500",
    "123122.942500",
    "123124.942500",
    "123126.942500",
    "123128.942500",
    "123130.942500",
    "123132.942500",
    "123134.942500",
    "123136.942500",
    "123138.942500",
    "123140.942500",
    "123142.942500",
    "123144.942500",
    "123146.942500",
    "123148.942500",
    "123150.942500",
    "123152.942500",
    "123154.942500",
    "123156.942500",
    "123158.942500",
    "123200.942500",
    "123202.942500",
    "123204.942500",
    "123206.942500",
    "123208.942500",
    "123210.942500",
    "123212.942500",
    "123214.942500",
    "123216.942500",
    "123218.942500",
    "123220.942500",
    "123222.942500",
    "123224.942500",
    "123226.942500",
    "123228.942500",
    "123230.942500",
    "123232.942500",
    "123234.942500",
    "123236.942500",
    "123238.942500",
    "123240.942500",
    "123242.942500",
    "123244.942500",
    "123246.942500",
    "123248.942500",
    "123250.942500",
    "123252.942500",
    "123254.942500",
    "123256.942500",
    "123258.942500",
    "123300.942500",
    "123302.942500",
    "123304.942500",
    "123306.942500",
    "123308.942500",
    "123310.942500",
    "123312.942500",
    "123314.942500",
    "123316.942500",
    "123318.942500",
    "123320.942500",
    "123322.942500",
    "123324.942500",
    "123326.942500",
    "123328.942500",
    "123330.942500",
    "123332.942500",
    "123334.942500",
    "123336.942500",
    "123338.942500",
    "123340.942500",
    "123342.942500",
    "123344.942500",
    "123346.942500",
    "123348.942500",
    "123350.942500",
    "123352.942500",
    "123354.942500",
    "123356.942500",
    "123358.942500",
    "123400.942500",
    "123402.942500",
    "123404.942500",
    "123406.942500",
    "123408.942500",
    "123410.942500",
    "123412.942500",
    "123414.942500",
    "123416.942500",
    "123418.942500",
    "123420.942500",
    "123422.942500",
    "123424.942500",
    "123426.942500",
    "123428.942500",
    "123430.942500",
    "123432.942500",
    "123434.942500",
    "123436.942500",
    "123438.942500",
    "123440.942500",
    "123442.942500",
    "123444.942500",
    "123446.942500",
    "123448.942500",
    "123450.942500",
    "123452.942500",
    "123454.942500",
    "123456.942500",
    "123458.942500",
    "123500.942500",
    "123502.942500",
    "123504.942500",
    "123506.942500",
    "123508.942500",
    "123510.942500",
    "123512.942500",
    "123514.942500",
    "123516.942500",
    "123518.942500",
    "123520.942500",
    "123522.942500",
    "123524.942500",
    "123526.942500",
    "123528.942500",
    "123530.942500",
    "123532.942500",
    "123534.942500",
    "123536.942500",
    "123538.942500",
    "123540.942500",
    "123542.942500",
    "123544.942500",
    "123546.942500",
    "123548.942500",
    "123550.942500",
    "123552.942500",
    "123554.942500",
    "123556.942500",
    "123558.942500",
    "123600.942500",
    "123602.942500",
    "123604.942500",
    "123606.942500",
    "123608.942500",
    "123610.942500",
    "123612.942500",
    "123614.942500",
    "123616.942500",
    "123618.942500",
    "123620.942500",
    "123622.942500",
    "123624.942500",
    "123626.942500",
    "123628.942500",
    "123630.942500",
    "123632.942500",
    "123634.942500"
   ],
   "ContentTime": [
    "122806.977000",
    "122808.470000",
    "122810.471000",
    "122812.472000",
    "122814.472000",
    "122816.471000",
    "122818.472000",
    "122820.471000",
    "122822.470000",
    "122824.470000",
    "122826.470000",
    "122828.471000",
    "122830.472000",
    "122832.971000",
    "122834.472000",
    "122836.471000",
    "122838.471000",
    "122840.471000",
    "122842.470000",
    "122844.971000",
    "122846.472000",
    "122848.471000",
    "122850.472000",
    "122852.471000",
    "122854.471000",
    "122856.471000",
    "122858.470000",
    "122900.470000",
    "122902.471000",
    "122904.472000",
    "122906.472000",
    "122908.471000",
    "122910.472000",
    "122912.471000",
    "122914.471000",
    "122916.470000",
    "122918.471000",
    "122920.470000",
    "122922.472000",
    "122924.972000",
    "122926.471000",
    "122928.471000",
    "122930.471000",
    "122932.471000",
    "122934.471000",
    "122936.470000",
    "122938.471000",
    "122940.471000",
    "122942.472000",
    "122944.472000",
    "122946.472000",
    "122948.471000",
    "122950.471000",
    "122952.470000",
    "122954.470000",
    "122956.471000",
    "122958.471000",
    "123000.471000",
    "123002.472000",
    "123004.471000",
    "123006.471000",
    "123008.470000",
    "123010.470000",
    "123012.471000",
    "123014.472000",
    "123016.972000",
    "123018.471000",
    "123020.472000",
    "123022.471000",
    "123024.471000",
    "123026.470000",
    "123028.471000",
    "123030.471000",
    "123032.471000",
    "123034.471000",
    "123036.472000",
    "123038.472000",
    "123040.972000",
    "123042.470000",
    "123044.470000",
    "123046.471000",
    "123048.470000",
    "123050.472000",
    "123052.471000",
    "123054.471000",
    "123056.471000",
    "123058.471000",
    "123100.471000",
    "123102.470000",
    "123104.471000",
    "123106.471000",
    "123108.472000",
    "123110.471000",
    "123112.472000",
    "123114.472000",
    "123116.471000",
    "123118.471000",
    "123120.471000",
    "123122.470000",
    "123124.471000",
    "123126.472000",
    "123128.471000",
    "123130.472000",
    "123132.472000",
    "123134.472000",
    "123136.470000",
    "123138.471000",
    "123140.470000",
    "123142.472000",
    "123144.472000",
    "123146.471000",
    "123148.471000",
    "123150.472000",
    "123152.470000",
    "123154.471000",
    "123156.470000",
    "123158.470000",
    "123200.471000",
    "123202.972000",
    "123204.472000",
    "123206.472000",
    "123208.472000",
    "123210.970000",
    "123212.471000",
    "123214.470000",
    "123216.471000",
    "123218.471000",
    "123220.471000",
    "123222.472000",
    "123224.472000",
    "123226.972000",
    "123228.470000",
    "123230.971000",
    "123232.471000",
    "123234.471000",
    "123236.472000",
    "123238.471000",
    "123240.472000",
    "123242.471000",
    "123244.471000",
    "123246.471000",
    "123248.470000",
    "123250.470000",
    "123252.472000",
    "123254.471000",
    "123256.472000",
    "123258.472000",
    "123300.471000",
    "123302.470000",
    "123304.470000",
    "123306.471000",
    "123308.471000",
    "123310.471000",
    "123312.472000",
    "123314.471000",
    "123316.472000",
    "123318.472000",
    "123320.470000",
    "123322.471000",
    "123324.470000",
    "123326.472000",
    "123328.472000",
    "123330.472000",
    "123332.471000",
    "123334.471000",
    "123336.472000",
    "123338.471000",
    "123340.471000",
    "123342.470000",
    "123344.471000",
    "123346.972000",
    "123348.471000",
    "123350.472000",
    "123352.471000",
    "123354.471000",
    "123356.470000",
    "123358.470000",
    "123400.471000",
    "123402.471000",
    "123404.472000",
    "123406.471000",
    "123408.471000",
    "123410.472000",
    "123412.471000",
    "123414.470000",
    "123416.471000",
    "123418.471000",
    "123420.472000",
    "123422.971000",
    "123424.471000",
    "123426.471000",
    "123428.472000",
    "123430.470000",
    "123432.470000",
    "123434.470000",
    "123436.472000",
    "123438.472000",
    "123440.472000",
    "123442.471000",
    "123444.473000",
    "123446.471000",
    "123448.471000",
    "123450.470000",
    "123452.471000",
    "123454.471000",
    "123456.471000",
    "123458.472000",
    "123500.471000",
    "123502.472000",
    "123504.472000",
    "123506.470000",
    "123508.471000",
    "123510.470000",
    "123512.472000",
    "123514.471000",
    "123516.472000",
    "123518.471000",
    "123520.472000",
    "123522.470000",
    "123524.470000",
    "123526.471000",
    "123528.472000",
    "123530.471000",
    "123532.971000",
    "123534.472000",
    "123536.471000",
    "123538.472000",
    "123540.470000",
    "123542.470000",
    "123544.470000",
    "123546.471000",
    "123548.471000",
    "123550.471000",
    "123552.471000",
    "123554.472000",
    "123556.471000",
    "123558.470000",
    "123600.470000",
    "123602.471000",
    "123604.472000",
    "123606.472000",
    "123608.472000",
    "123610.472000",
    "123612.471000",
    "123614.970000",
    "123616.471000",
    "123618.471000",
    "123620.470000",
    "123622.971000",
    "123624.472000",
    "123626.971000",
    "123628.472000",
    "123630.971000",
    "123632.470000",
    "123634.471000",
    "123636.424000"
   ],
   "InstanceCreationTime": [
    "122806.977000",
    "122808.470000",
    "122810.471000",
    "122812.472000",
    "122814.472000",
    "122816.471000",
    "122818.472000",
    "122820.471000",
    "122822.470000",
    "122824.470000",
    "122826.470000",
    "122828.471000",
    "122830.472000",
    "122832.971000",
    "122834.472000",
    "122836.471000",
    "122838.471000",
    "122840.471000",
    "122842.470000",
    "122844.971000",
    "122846.472000",
    "122848.471000",
    "122850.472000",
    "122852.471000",
    "122854.471000",
    "122856.471000",
    "122858.470000",
    "122900.470000",
    "122902.471000",
    "122904.472000",
    "122906.472000",
    "122908.471000",
    "122910.472000",
    "122912.471000",
    "122914.471000",
    "122916.470000",
    "122918.471000",
    "122920.470000",
    "122922.472000",
    "122924.972000",
    "122926.471000",
    "122928.471000",
    "122930.471000",
    "122932.471000",
    "122934.471000",
    "122936.470000",
    "122938.471000",
    "122940.471000",
    "122942.472000",
    "122944.472000",
    "122946.472000",
    "122948.471000",
    "122950.471000",
    "122952.470000",
    "122954.470000",
    "122956.471000",
    "122958.471000",
    "123000.471000",
    "123002.472000",
    "123004.471000",
    "123006.471000",
    "123008.470000",
    "123010.470000",
    "123012.471000",
    "123014.472000",
    "123016.972000",
    "123018.471000",
    "123020.472000",
    "123022.471000",
    "123024.471000",
    "123026.470000",
    "123028.471000",
    "123030.471000",
    "123032.471000",
    "123034.471000",
    "123036.472000",
    "123038.472000",
    "123040.972000",
    "123042.470000",
    "123044.470000",
    "123046.471000",
    "123048.470000",
    "123050.472000",
    "123052.471000",
    "123054.471000",
    "123056.471000",
    "123058.471000",
    "123100.471000",
    "123102.470000",
    "123104.471000",
    "123106.471000",
    "123108.472000",
    "123110.471000",
    "123112.472000",
    "123114.472000",
    "123116.471000",
    "123118.471000",
    "123120.471000",
    "123122.470000",
    "123124.471000",
    "123126.472000",
    "123128.471000",
    "123130.472000",
    "123132.472000",
    "123134.472000",
    "123136.470000",
    "123138.471000",
    "123140.470000",
    "123142.472000",
    "123144.472000",
    "123146.471000",
    "123148.471000",
    "123150.472000",
    "123152.470000",
    "123154.471000",
    "123156.470000",
    "123158.470000",
    "123200.471000",
    "123202.972000",
    "123204.472000",
    "123206.472000",
    "123208.472000",
    "123210.970000",
    "123212.471000",
    "123214.470000",
    "123216.471000",
    "123218.471000",
    "123220.471000",
    "123222.472000",
    "123224.472000",
    "123226.972000",
    "123228.470000",
    "123230.971000",
    "123232.471000",
    "123234.471000",
    "123236.472000",
    "123238.471000",
    "123240.472000",
    "123242.471000",
    "123244.471000",
    "123246.471000",
    "123248.470000",
    "123250.470000",
    "123252.472000",
    "123254.471000",
    "123256.472000",
    "123258.472000",
    "123300.471000",
    "123302.470000",
    "123304.470000",
    "123306.471000",
    "123308.471000",
    "123310.471000",
    "123312.472000",
    "123314.471000",
    "123316.472000",
    "123318.472000",
    "123320.470000",
    "123322.471000",
    "123324.470000",
    "123326.472000",
    "123328.472000",
    "123330.472000",
    "123332.471000",
    "123334.471000",
    "123336.472000",
    "123338.471000",
    "123340.471000",
    "123342.470000",
    "123344.471000",
    "123346.972000",
    "123348.471000",
    "123350.472000",
    "123352.471000",
    "123354.471000",
    "123356.470000",
    "123358.470000",
    "123400.471000",
    "123402.471000",
    "123404.472000",
    "123406.471000",
    "123408.471000",
    "123410.472000",
    "123412.471000",
    "123414.470000",
    "123416.471000",
    "123418.471000",
    "123420.472000",
    "123422.971000",
    "123424.471000",
    "123426.471000",
    "123428.472000",
    "123430.470000",
    "123432.470000",
    "123434.470000",
    "123436.472000",
    "123438.472000",
    "123440.472000",
    "123442.471000",
    "123444.473000",
    "123446.471000",
    "123448.471000",
    "123450.470000",
    "123452.471000",
    "123454.471000",
    "123456.471000",
    "123458.472000",
    "123500.471000",
    "123502.472000",
    "123504.472000",
    "123506.470000",
    "123508.471000",
    "123510.470000",
    "123512.472000",
    "123514.471000",
    "123516.472000",
    "123518.471000",
    "123520.472000",
    "123522.470000",
    "123524.470000",
    "123526.471000",
    "123528.472000",
    "123530.471000",
    "123532.971000",
    "123534.472000",
    "123536.471000",
    "123538.472000",
    "123540.470000",
    "123542.470000",
    "123544.470000",
    "123546.471000",
    "123548.471000",
    "123550.471000",
    "123552.471000",
    "123554.472000",
    "123556.471000",
    "123558.470000",
    "123600.470000",
    "123602.471000",
    "123604.472000",
    "123606.472000",
    "123608.472000",
    "123610.472000",
    "123612.471000",
    "123614.970000",
    "123616.471000",
    "123618.471000",
    "123620.470000",
    "123622.971000",
    "123624.472000",
    "123626.971000",
    "123628.472000",
    "123630.971000",
    "123632.470000",
    "123634.471000",
    "123636.424000"
   ],
   "InstanceNumber": [
    1,
    2,
    3,
    4,
    5,
    6,
    7,
    8,
    9,
    10,
    11,
    12,
    13,
    14,
    15,
    16,
    17,
    18,
    19,
    20,
    21,
    22,
    23,
    24,
    25,
    26,
    27,
    28,
    29,
    30,
    31,
    32,
    33,
    34,
    35,
    36,
    37,
    38,
    39,
    40,
    41,
    42,
    43,
    44,
    45,
    46,
    47,
    48,
    49,
    50,
    51,
    52,
    53,
    54,
    55,
    56,
    57,
    58,
    59,
    60,
    61,
    62,
    63,
    64,
    65,
    66,
    67,
    68,
    69,
    70,
    71,
    72,
    73,
    74,
    75,
    76,
    77,
    78,
    79,
    80,
    81,
    82,
    83,
    84,
    85,
    86,
    87,
    88,
    89,
    90,
    91,
    92,
    93,
    94,
    95,
    96,
    97,
    98,
    99,
    100,
    101,
    102,
    103,
    104,
    105,
    106,
    107,
    108,
    109,
    110,
    111,
    112,
    113,
    114,
    115,
    116,
    117,
    118,
    119,
    120,
    121,
    122,
    123,
    124,
    125,
    126,
    127,
    128,
    129,
    130,
    131,
    132,
    133,
    134,
    135,
    136,
    137,
    138,
    139,
    140,
    141,
    142,
    143,
    144,
    145,
    146,
    147,
    148,
    149,
    150,
    151,
    152,
    153,
    154,
    155,
    156,
    157,
    158,
    159,
    160,
    161,
    162,
    163,
    164,
    165,
    166,
    167,
    168,
    169,
    170,
    171,
    172,
    173,
    174,
    175,
    176,
    177,
    178,
    179,
    180,
    181,
    182,
    183,
    184,
    185,
    186,
    187,
    188,
    189,
    190,
    191,
    192,
    193,
    194,
    195,
    196,
    197,
    198,
    199,
    200,
    201,
    202,
    203,
    204,
    205,
    206,
    207,
    208,
    209,
    210,
    211,
    212,
    213,
    214,
    215,
    216,
    217,
    218,
    219,
    220,
    221,
    222,
    223,
    224,
    225,
    226,
    227,
    228,
    229,
    230,
    231,
    232,
    233,
    234,
    235,
    236,
    237,
    238,
    239,
    240,
    241,
    242,
    243,
    244,
    245,
    246,
    247,
    248,
    249,
    250,
    251,
    252,
    253,
    254,
    255,
    256
   ],
   "LargestImagePixelValue": [
    3431,
    3402,
    3380,
    3332,
    3352,
    3384,
    3340,
    3355,
    3337,
    3345,
    3342,
    3310,
    3379,
    3279,
    3311,
    3289,
    3301,
    3294,
    3293,
    3306,
    3296,
    3307,
    3271,
    3307,
    3297,
    3329,
    3316,
    3309,
    3322,
    3284,
    3316,
    3329,
    3321,
    3318,
    3300,
    3298,
    3282,
    3313,
    3280,
    3305,
    3296,
    3298,
    3286,
    3281,
    3297,
    3296,
    3290,
    3328,
    3297,
    3320,
    3305,
    3275,
    3321,
    3317,
    3322,
    3302,
    3306,
    3308,
    3310,
    3321,
    3313,
    3309,
    3315,
    3311,
    3283,
    3314,
    3287,
    3287,
    3271,
    3291,
    3304,
    3308,
    3295,
    3318,
    3307,
    3327,
    3320,
    3333,
    3319,
    3333,
    3295,
    3303,
    3300,
    3318,
    3293,
    3332,
    3269,
    3263,
    3308,
    3288,
    3302,
    3280,
    3291,
    3295,
    3271,
    3274,
    3235,
    3268,
    3282,
    3283,
    3271,
    3241,
    3286,
    3260,
    3265,
    3271,
    3281,
    3305,
    3267,
    3275,
    3281,
    3269,
    3251,
    3267,
    3257,
    3287,
    3270,
    3246,
    3242,
    3256,
    3260,
    3271,
    3246,
    3290,
    3246,
    3267,
    3258,
    3252,
    3269,
    3279,
    3254,
    3227,
    3235,
    3201,
    3202,
    3237,
    3237,
    3228,
    3251,
    3212,
    3209,
    3236,
    3233,
    3250,
    3249,
    3231,
    3228,
    3255,
    3259,
    3249,
    3260,
    3216,
    3249,
    3252,
    3242,
    3244,
    3221,
    3240,
    3234,
    3222,
    3232,
    3211,
    3232,
    3220,
    3199,
    3218,
    3215,
    3215,
    3227,
    3264,
    3204,
    3241,
    3178,
    3177,
    3163,
    3186,
    3204,
    3188,
    3221,
    3196,
    3210,
    3219,
    3234,
    3242,
    3222,
    3258,
    3256,
    3321,
    3260,
    3257,
    3291,
    3270,
    3259,
    3269,
    3239,
    3252,
    3302,
    3262,
    3261,
    3264,
    3286,
    3255,
    3303,
    3273,
    3281,
    3312,
    3294,
    3308,
    3284,
    3309,
    3265,
    3314,
    3314,
    3330,
    3292,
    3308,
    3286,
    3328,
    3284,
    3308,
    3281,
    3342,
    3358,
    3284,
    3302,
    3308,
    3331,
    3355,
    3291,
    3292,
    3309,
    3320,
    3313,
    3275,
    3321,
    3271,
    3270,
    3281,
    3277,
    3288,
    3319,
    3289,
    3279,
    3298,
    3317,
    3300,
    3332,
    3311,
    3318,
    3310,
    3312,
    3327,
    3326,
    3344,
    3321,
    3325
   ],
   "WindowCenter": [
    845.0,
    844.0,
    844.0,
    843.0,
    842.0,
    842.0,
    842.0,
    843.0,
    842.0,
    842.0,
    841.0,
    842.0,
    842.0,
    840.0,
    839.0,
    839.0,
    839.0,
    839.0,
    840.0,
    840.0,
    839.0,
    837.0,
    837.0,
    839.0,
    839.0,
    838.0,
    837.0,
    837.0,
    837.0,
    836.0,
    837.0,
    839.0,
    839.0,
    838.0,
    837.0,
    836.0,
    836.0,
    837.0,
    838.0,
    838.0,
    838.0,
    838.0,
    838.0,
    838.0,
    838.0,
    837.0,
    838.0,
    838.0,
    838.0,
    838.0,
    837.0,
    838.0,
    839.0,
    839.0,
    840.0,
    839.0,
    838.0,
    838.0,
    839.0,
    837.0,
    837.0,
    837.0,
    838.0,
    838.0,
    837.0,
    838.0,
    839.0,
    839.0,
    838.0,
    838.0,
    839.0,
    839.0,
    837.0,
    838.0,
    838.0,
    837.0,
    838.0,
    838.0,
    838.0,
    838.0,
    838.0,
    838.0,
    837.0,
    837.0,
    837.0,
    837.0,
    838.0,
    840.0,
    841.0,
    840.0,
    839.0,
    839.0,
    838.0,
    838.0,
    838.0,
    837.0,
    838.0,
    840.0,
    840.0,
    838.0,
    837.0,
    837.0,
    837.0,
    837.0,
    837.0,
    836.0,
    836.0,
    837.0,
    837.0,
    838.0,
    838.0,
    836.0,
    837.0,
    837.0,
    839.0,
    838.0,
    837.0,
    837.0,
    838.0,
    839.0,
    839.0,
    840.0,
    840.0,
    839.0,
