{
  "AcquisitionMatrixPE": 100,
  "AcquisitionNumber": 1,
  "AcquisitionTime": "12:05:40.365000",
  "BandwidthPerPixelPhaseEncode": 18.519,
  "BaseResolution": 100,
  "BodyPartExamined": "BRAIN",
  "ConsistencyInfo": "N4_VE11C_LATEST_20160120",
  "ConversionSoftware": "dcm2niix",
  "ConversionSoftwareVersion": "v1.0.20180622 GCC4.9.2",
  "DerivedVendorReportedEchoSpacing": 0.000539986,
  "DeviceSerialNumber": "166078",
  "DwellTime": 2.1e-06,
  "EchoTime": 0.034,
  "EchoTrainLength": 100,
  "EffectiveEchoSpacing": 0.000539986,
  "FlipAngle": 90,
  "ImageOrientationPatientDICOM": [1, 0, 0, 0, 0.984196, -0.177085],
  "ImageType": [
    "ORIGINAL",
    "PRIMARY",
    "M",
    "ND",
    "MOSAIC"
],
  "InPlanePhaseEncodingDirectionDICOM": "COL",
  "InstitutionAddress": "Street_StreetNo_Bei_Jing_District_CN_ZIP",
  "InstitutionName": "BeiJing_Normal_University",
  "InstitutionalDepartmentName": "Department",
  "MRAcquisitionType": "2D",
  "MagneticFieldStrength": 3,
  "Manufacturer": "Siemens",
  "ManufacturersModelName": "Prisma",
  "Modality": "MR",
  "MultibandAccelerationFactor": 3,
  "PartialFourier": 1,
  "PatientPosition": "HFS",
  "PercentPhaseFOV": 100,
  "PhaseEncodingDirection": "j-",
  "PhaseEncodingSteps": 100,
  "PhaseResolution": 1,
  "PixelBandwidth": 2380,
  "ProcedureStepDescription": "BNU_P2018_64CH_Zhen.ZongLei",
  "ProtocolName": "bold_100x100_s3_2x2x2_static_256",
  "PulseSequenceDetails": "%SiemensSeq%_ep2d_bold",
  "ReceiveCoilActiveElements": "HC1-7;NC1",
  "ReceiveCoilName": "HeadNeck_64",
  "ReconMatrixPE": 100,
  "RepetitionTime": 2,
  "SAR": 0.0826949,
  "ScanOptions": "FS",
  "ScanningSequence": "EP",
  "SequenceName": "_epfid2d1_100",
  "SequenceVariant": "SK",
  "SeriesDescription": "bold_100x100_s3_2x2x2_static_256",
  "SeriesNumber": 14,
  "ShimSetting": [-5468, -11492, -1268, 407, -31, -153, -166, 88],
  "SliceThickness": 2,
  "SliceTiming": [1.485, 0, 0.99, 0.0825, 1.0725, 0.165, 1.155, 0.2475, 1.2375, 0.33, 1.32, 0.4125, 1.4025, 0.5775, 1.5675, 0.66, 1.65, 0.7425, 1.7325, 0.825, 1.815, 0.9075, 1.8975, 0.495, 1.485, 0, 0.99, 0.0825, 1.0725, 0.165, 1.155, 0.2475, 1.2375, 0.33, 1.32, 0.4125, 1.4025, 0.5775, 1.5675, 0.66, 1.65, 0.7425, 1.7325, 0.825, 1.815, 0.9075, 1.8975, 0.495, 1.485, 0, 0.99, 0.0825, 1.0725, 0.165, 1.155, 0.2475, 1.2375, 0.33, 1.32, 0.4125, 1.4025, 0.5775, 1.5675, 0.66, 1.65, 0.7425, 1.7325, 0.825, 1.815, 0.9075, 1.8975, 0.495],
  "SoftwareVersions": "syngo_MR_E11",
  "SpacingBetweenSlices": 2,
  "StationName": "AWP166078",
  "TaskName": "naturalvision",
  "TotalReadoutTime": 0.0534586,
  "TxRefAmp": 232.612,
  "dcmmeta_affine": [
    [-2.0, 0.0, 0.0, 100.0],
    [0.0, 1.9683911800384521, -0.35416948795318604, -84.13357543945312],
    [0.0, 0.35416948795318604, 1.9683911800384521, -89.35267639160156],
    [0.0, 0.0, 0.0, 1.0]
],
  "dcmmeta_reorient_transform": [
    [0.0, -1.0, 0.0, 99.0],
    [1.0, 0.0, 0.0, 0.0],
    [0.0, 0.0, 1.0, 0.0],
    [0.0, 0.0, 0.0, 1.0]
],
  "dcmmeta_shape": [100, 100, 72, 256],
  "dcmmeta_slice_dim": 2,
  "dcmmeta_version": 0.6,
  "global": {
    "const": {
      "AcquisitionMatrix": [100, 0, 0, 100],
      "AngioFlag": "N",
      "BitsAllocated": 16,
      "BitsStored": 12,
      "BodyPartExamined": "BRAIN",
      "Columns": 900,
      "EchoNumbers": 1,
      "EchoTime": 34.0,
      "EchoTrainLength": 100,
      "FlipAngle": 90.0,
      "HighBit": 11,
      "ImageOrientationPatient": [1.0, 0.0, 0.0, 0.0, 0.98419560640419, -0.1770847490178],
      "ImagePositionPatient": [-900.0, -898.09364029197, 87.377906806423],
      "ImageType": [
        "ORIGINAL",
        "PRIMARY",
        "M",
        "ND",
        "MOSAIC"
],
      "ImagedNucleus": "1H",
      "ImagingFrequency": 123.257752,
      "InPlanePhaseEncodingDirection": "COL",
      "MRAcquisitionType": "2D",
      "MagneticFieldStrength": 3.0,
      "Manufacturer": "SIEMENS",
      "ManufacturerModelName": "Prisma",
      "Modality": "MR",
      "NumberOfAverages": 1.0,
      "NumberOfPhaseEncodingSteps": 100,
      "PercentPhaseFieldOfView": 100.0,
      "PercentSampling": 100.0,
      "PerformedProcedureStepStartTime": "105611.231000",
      "PhotometricInterpretation": "MONOCHROME2",
      "PixelBandwidth": 2380.0,
      "PixelRepresentation": 0,
      "PixelSpacing": [2.0, 2.0],
      "ProtocolName": "bold_100x100_s3_2x2x2_static_256",
      "RepetitionTime": 2000.0,
      "Rows": 900,
      "SAR": 0.08269486249637,
      "SamplesPerPixel": 1,
      "ScanOptions": "FS",
      "ScanningSequence": "EP",
      "SequenceName": "*epfid2d1_100",
      "SequenceVariant": "SK",
      "SeriesDescription": "bold_100x100_s3_2x2x2_static_256",
      "SeriesNumber": 14,
      "SeriesTime": "120543.299000",
      "SliceLocation": -73.041734909883,
      "SliceThickness": 2.0,
      "SmallestImagePixelValue": 0,
      "SoftwareVersions": "syngo MR E11",
      "SpacingBetweenSlices": 1.9999999858265,
      "SpecificCharacterSet": "ISO_IR 100",
      "StudyID": "1",
      "StudyTime": "105611.144000",
      "TransmitCoilName": "Body",
      "VariableFlipAngleFlag": "N",
      "WindowCenterWidthExplanation": "Algo1",
      "dBdt": 0.0},
    "slices": {}
  },
  "time": {
    "samples": {
      "AcquisitionNumber": [1, 2, 3, 4, 5, 6, 7, 8, 9, 10, 11, 12, 13, 14, 15, 16, 17, 18, 19, 20, 21, 22, 23, 24, 25, 26, 27, 28, 29, 30, 31, 32, 33, 34, 35, 36, 37, 38, 39, 40, 41, 42, 43, 44, 45, 46, 47, 48, 49, 50, 51, 52, 53, 54, 55, 56, 57, 58, 59, 60, 61, 62, 63, 64, 65, 66, 67, 68, 69, 70, 71, 72, 73, 74, 75, 76, 77, 78, 79, 80, 81, 82, 83, 84, 85, 86, 87, 88, 89, 90, 91, 92, 93, 94, 95, 96, 97, 98, 99, 100, 101, 102, 103, 104, 105, 106, 107, 108, 109, 110, 111, 112, 113, 114, 115, 116, 117, 118, 119, 120, 121, 122, 123, 124, 125, 126, 127, 128, 129, 130, 131, 132, 133, 134, 135, 136, 137, 138, 139, 140, 141, 142, 143, 144, 145, 146, 147, 148, 149, 150, 151, 152, 153, 154, 155, 156, 157, 158, 159, 160, 161, 162, 163, 164, 165, 166, 167, 168, 169, 170, 171, 172, 173, 174, 175, 176, 177, 178, 179, 180, 181, 182, 183, 184, 185, 186, 187, 188, 189, 190, 191, 192, 193, 194, 195, 196, 197, 198, 199, 200, 201, 202, 203, 204, 205, 206, 207, 208, 209, 210, 211, 212, 213, 214, 215, 216, 217, 218, 219, 220, 221, 222, 223, 224, 225, 226, 227, 228, 229, 230, 231, 232, 233, 234, 235, 236, 237, 238, 239, 240, 241, 242, 243, 244, 245, 246, 247, 248, 249, 250, 251, 252, 253, 254, 255, 256],
      "AcquisitionTime": ["120540.365000", "120542.365000", "120544.365000", "120546.365000", "120548.365000", "120550.365000", "120552.365000", "120554.365000", "120556.365000", "120558.365000", "120600.365000", "120602.365000", "120604.365000", "120606.365000", "120608.365000", "120610.365000", "120612.365000", "120614.365000", "120616.365000", "120618.365000", "120620.365000", "120622.365000", "120624.365000", "120626.365000", "120628.365000", "120630.365000", "120632.365000", "120634.365000", "120636.365000", "120638.365000", "120640.365000", "120642.365000", "120644.365000", "120646.365000", "120648.365000", "120650.365000", "120652.365000", "120654.365000", "120656.365000", "120658.365000", "120700.365000", "120702.365000", "120704.365000", "120706.365000", "120708.365000", "120710.365000", "120712.365000", "120714.365000", "120716.365000", "120718.365000", "120720.365000", "120722.365000", "120724.365000", "120726.365000", "120728.365000", "120730.365000", "120732.365000", "120734.365000", "120736.365000", "120738.365000", "120740.365000", "120742.365000", "120744.365000", "120746.365000", "120748.365000", "120750.365000", "120752.365000", "120754.365000", "120756.365000", "120758.365000", "120800.365000", "120802.365000", "120804.365000", "120806.365000", "120808.365000", "120810.365000", "120812.365000", "120814.365000", "120816.365000", "120818.365000", "120820.365000", "120822.365000", "120824.365000", "120826.365000", "120828.365000", "120830.365000", "120832.365000", "120834.365000", "120836.365000", "120838.365000", "120840.365000", "120842.365000", "120844.365000", "120846.365000", "120848.365000", "120850.365000", "120852.365000", "120854.365000", "120856.365000", "120858.365000", "120900.365000", "120902.365000", "120904.365000", "120906.365000", "120908.365000", "120910.365000", "120912.365000", "120914.365000", "120916.365000", "120918.365000", "120920.365000", "120922.365000", "120924.365000", "120926.365000", "120928.365000", "120930.365000", "120932.365000", "120934.365000", "120936.365000", "120938.365000", "120940.365000", "120942.365000", "120944.365000", "120946.365000", "120948.365000", "120950.365000", "120952.365000", "120954.365000", "120956.365000", "120958.365000", "121000.365000", "121002.365000", "121004.365000", "121006.365000", "121008.365000", "121010.365000", "121012.365000", "121014.365000", "121016.365000", "121018.365000", "121020.365000", "121022.365000", "121024.365000", "121026.365000", "121028.365000", "121030.365000", "121032.365000", "121034.365000", "121036.365000", "121038.365000", "121040.365000", "121042.365000", "121044.365000", "121046.365000", "121048.365000", "121050.365000", "121052.365000", "121054.365000", "121056.365000", "121058.365000", "121100.365000", "121102.365000", "121104.365000", "121106.365000", "121108.365000", "121110.365000", "121112.365000", "121114.365000", "121116.365000", "121118.365000", "121120.365000", "121122.365000", "121124.365000", "121126.365000", "121128.365000", "121130.365000", "121132.365000", "121134.365000", "121136.365000", "121138.365000", "121140.365000", "121142.365000", "121144.365000", "121146.365000", "121148.365000", "121150.365000", "121152.365000", "121154.365000", "121156.365000", "121158.365000", "121200.365000", "121202.365000", "121204.365000", "121206.365000", "121208.365000", "121210.365000", "121212.365000", "121214.365000", "121216.365000", "121218.365000", "121220.365000", "121222.365000", "121224.365000", "121226.365000", "121228.365000", "121230.365000", "121232.365000", "121234.365000", "121236.365000", "121238.365000", "121240.365000", "121242.365000", "121244.365000", "121246.365000", "121248.365000", "121250.365000", "121252.365000", "121254.365000", "121256.365000", "121258.365000", "121300.365000", "121302.365000", "121304.365000", "121306.365000", "121308.365000", "121310.365000", "121312.365000", "121314.365000", "121316.365000", "121318.365000", "121320.365000", "121322.365000", "121324.365000", "121326.365000", "121328.365000", "121330.365000", "121332.365000", "121334.365000", "121336.365000", "121338.365000", "121340.365000", "121342.365000", "121344.365000", "121346.365000", "121348.365000", "121350.365000", "121352.365000", "121354.365000", "121356.365000", "121358.365000", "121400.365000", "121402.365000", "121404.365000", "121406.365000", "121408.365000", "121410.365000"],
      "ContentTime": ["120543.303000", "120544.798000", "120546.798000", "120548.797000", "120550.798000", "120552.797000", "120554.798000", "120556.798000", "120558.798000", "120600.798000", "120602.799000", "120604.797000", "120606.797000", "120608.797000", "120610.798000", "120612.797000", "120614.799000", "120616.798000", "120618.799000", "120620.798000", "120622.798000", "120624.798000", "120626.797000", "120628.797000", "120630.798000", "120632.799000", "120634.799000", "120636.799000", "120638.799000", "120640.798000", "120642.797000", "120644.798000", "120646.798000", "120648.798000", "120650.799000", "120652.798000", "120654.799000", "120656.798000", "120658.797000", "120700.797000", "120702.798000", "120704.797000", "120706.799000", "120708.798000", "120710.798000", "120712.798000", "120714.797000", "120716.798000", "120718.798000", "120720.797000", "120722.797000", "120724.798000", "120726.798000", "120728.798000", "120730.799000", "120732.797000", "120734.797000", "120736.798000", "120738.798000", "120740.797000", "120742.798000", "120744.798000", "120746.798000", "120748.798000", "120750.798000", "120752.797000", "120754.797000", "120756.797000", "120758.798000", "120800.799000", "120802.799000", "120804.799000", "120806.798000", "120808.797000", "120810.797000", "120812.797000", "120814.797000", "120816.798000", "120818.799000", "120820.799000", "120822.798000", "120824.797000", "120826.797000", "120828.797000", "120830.798000", "120832.799000", "120834.801000", "120836.799000", "120838.798000", "120840.798000", "120842.798000", "120844.798000", "120846.798000", "120848.797000", "120850.797000", "120852.799000", "120854.798000", "120856.799000", "120858.799000", "120900.798000", "120902.798000", "120904.798000", "120906.798000", "120908.798000", "120910.798000", "120912.799000", "120914.798000", "120916.798000", "120918.798000", "120920.798000", "120922.798000", "120924.798000", "120926.798000", "120928.798000", "120930.798000", "120932.798000", "120934.798000", "120936.797000", "120938.798000", "120940.797000", "120942.797000", "120944.808000", "120946.798000", "120948.798000", "120950.799000", "120952.797000", "120954.797000", "120956.797000", "120958.797000", "121000.797000", "121002.798000", "121004.798000", "121006.799000", "121008.799000", "121010.797000", "121012.798000", "121014.797000", "121016.798000", "121018.797000", "121020.798000", "121022.799000", "121024.798000", "121026.799000", "121028.797000", "121030.798000", "121032.797000", "121034.798000", "121036.799000", "121038.799000", "121040.798000", "121042.798000", "121044.797000", "121046.797000", "121048.798000", "121050.798000", "121052.798000", "121054.798000", "121056.798000", "121058.799000", "121100.799000", "121102.797000", "121104.797000", "121106.798000", "121108.797000", "121110.798000", "121112.799000", "121114.798000", "121116.799000", "121118.799000", "121120.797000", "121122.798000", "121124.797000", "121126.797000", "121128.797000", "121130.798000", "121132.799000", "121134.798000", "121136.799000", "121138.798000", "121140.798000", "121142.797000", "121144.798000", "121146.798000", "121148.798000", "121150.798000", "121152.799000", "121154.798000", "121156.798000", "121158.797000", "121200.797000", "121202.798000", "121204.798000", "121206.799000", "121208.799000", "121210.798000", "121212.797000", "121214.798000", "121216.797000", "121218.797000", "121220.798000", "121222.798000", "121224.798000", "121226.799000", "121228.799000", "121230.798000", "121232.798000", "121234.797000", "121236.797000", "121239.298000", "121240.799000", "121242.799000", "121244.798000", "121246.798000", "121248.797000", "121250.798000", "121252.798000", "121254.798000", "121256.799000", "121258.798000", "121300.799000", "121302.798000", "121304.798000", "121306.797000", "121308.798000", "121310.798000", "121312.798000", "121314.799000", "121316.798000", "121318.798000", "121320.798000", "121322.797000", "121324.797000", "121326.798000", "121328.798000", "121330.797000", "121332.799000", "121334.798000", "121336.799000", "121338.798000", "121340.797000", "121342.797000", "121344.797000", "121346.798000", "121348.799000", "121350.799000", "121352.798000", "121354.799000", "121356.799000", "121358.797000", "121400.798000", "121402.797000", "121404.797000", "121406.798000", "121408.799000", "121410.798000", "121412.678000"],
      "InstanceCreationTime": ["120543.303000", "120544.798000", "120546.798000", "120548.797000", "120550.798000", "120552.797000", "120554.798000", "120556.798000", "120558.798000", "120600.798000", "120602.799000", "120604.797000", "120606.797000", "120608.797000", "120610.798000", "120612.797000", "120614.799000", "120616.798000", "120618.799000", "120620.798000", "120622.798000", "120624.798000", "120626.797000", "120628.797000", "120630.798000", "120632.799000", "120634.799000", "120636.799000", "120638.799000", "120640.798000", "120642.797000", "120644.798000", "120646.798000", "120648.798000", "120650.799000", "120652.798000", "120654.799000", "120656.798000", "120658.797000", "120700.797000", "120702.798000", "120704.797000", "120706.799000", "120708.798000", "120710.798000", "120712.798000", "120714.797000", "120716.798000", "120718.798000", "120720.797000", "120722.797000", "120724.798000", "120726.798000", "120728.798000", "120730.799000", "120732.797000", "120734.797000", "120736.798000", "120738.798000", "120740.797000", "120742.798000", "120744.798000", "120746.798000", "120748.798000", "120750.798000", "120752.797000", "120754.797000", "120756.797000", "120758.798000", "120800.799000", "120802.799000", "120804.799000", "120806.798000", "120808.797000", "120810.797000", "120812.797000", "120814.797000", "120816.798000", "120818.799000", "120820.799000", "120822.798000", "120824.797000", "120826.797000", "120828.797000", "120830.798000", "120832.799000", "120834.801000", "120836.799000", "120838.798000", "120840.798000", "120842.798000", "120844.798000", "120846.798000", "120848.797000", "120850.797000", "120852.799000", "120854.798000", "120856.799000", "120858.799000", "120900.798000", "120902.798000", "120904.798000", "120906.798000", "120908.798000", "120910.798000", "120912.799000", "120914.798000", "120916.798000", "120918.798000", "120920.798000", "120922.798000", "120924.798000", "120926.798000", "120928.798000", "120930.798000", "120932.798000", "120934.798000", "120936.797000", "120938.798000", "120940.797000", "120942.797000", "120944.808000", "120946.798000", "120948.798000", "120950.799000", "120952.797000", "120954.797000", "120956.797000", "120958.797000", "121000.797000", "121002.798000", "121004.798000", "121006.799000", "121008.799000", "121010.797000", "121012.798000", "121014.797000", "121016.798000", "121018.797000", "121020.798000", "121022.799000", "121024.798000", "121026.799000", "121028.797000", "121030.798000", "121032.797000", "121034.798000", "121036.799000", "121038.799000", "121040.798000", "121042.798000", "121044.797000", "121046.797000", "121048.798000", "121050.798000", "121052.798000", "121054.798000", "121056.798000", "121058.799000", "121100.799000", "121102.797000", "121104.797000", "121106.798000", "121108.797000", "121110.798000", "121112.799000", "121114.798000", "121116.799000", "121118.799000", "121120.797000", "121122.798000", "121124.797000", "121126.797000", "121128.797000", "121130.798000", "121132.799000", "121134.798000", "121136.799000", "121138.798000", "121140.798000", "121142.797000", "121144.798000", "121146.798000", "121148.798000", "121150.798000", "121152.799000", "121154.798000", "121156.798000", "121158.797000", "121200.797000", "121202.798000", "121204.798000", "121206.799000", "121208.799000", "121210.798000", "121212.797000", "121214.798000", "121216.797000", "121218.797000", "121220.798000", "121222.798000", "121224.798000", "121226.799000", "121228.799000", "121230.798000", "121232.798000", "121234.797000", "121236.797000", "121239.298000", "121240.799000", "121242.799000", "121244.798000", "121246.798000", "121248.797000", "121250.798000", "121252.798000", "121254.798000", "121256.799000", "121258.798000", "121300.799000", "121302.798000", "121304.798000", "121306.797000", "121308.798000", "121310.798000", "121312.798000", "121314.799000", "121316.798000", "121318.798000", "121320.798000", "121322.797000", "121324.797000", "121326.798000", "121328.798000", "121330.797000", "121332.799000", "121334.798000", "121336.799000", "121338.798000", "121340.797000", "121342.797000", "121344.797000", "121346.798000", "121348.799000", "121350.799000", "121352.798000", "121354.799000", "121356.799000", "121358.797000", "121400.798000", "121402.797000", "121404.797000", "121406.798000", "121408.799000", "121410.798000", "121412.678000"],
      "InstanceNumber": [1, 2, 3, 4, 5, 6, 7, 8, 9, 10, 11, 12, 13, 14, 15, 16, 17, 18, 19, 20, 21, 22, 23, 24, 25, 26, 27, 28, 29, 30, 31, 32, 33, 34, 35, 36, 37, 38, 39, 40, 41, 42, 43, 44, 45, 46, 47, 48, 49, 50, 51, 52, 53, 54, 55, 56, 57, 58, 59, 60, 61, 62, 63, 64, 65, 66, 67, 68, 69, 70, 71, 72, 73, 74, 75, 76, 77, 78, 79, 80, 81, 82, 83, 84, 85, 86, 87, 88, 89, 90, 91, 92, 93, 94, 95, 96, 97, 98, 99, 100, 101, 102, 103, 104, 105, 106, 107, 108, 109, 110, 111, 112, 113, 114, 115, 116, 117, 118, 119, 120, 121, 122, 123, 124, 125, 126, 127, 128, 129, 130, 131, 132, 133, 134, 135, 136, 137, 138, 139, 140, 141, 142, 143, 144, 145, 146, 147, 148, 149, 150, 151, 152, 153, 154, 155, 156, 157, 158, 159, 160, 161, 162, 163, 164, 165, 166, 167, 168, 169, 170, 171, 172, 173, 174, 175, 176, 177, 178, 179, 180, 181, 182, 183, 184, 185, 186, 187, 188, 189, 190, 191, 192, 193, 194, 195, 196, 197, 198, 199, 200, 201, 202, 203, 204, 205, 206, 207, 208, 209, 210, 211, 212, 213, 214, 215, 216, 217, 218, 219, 220, 221, 222, 223, 224, 225, 226, 227, 228, 229, 230, 231, 232, 233, 234, 235, 236, 237, 238, 239, 240, 241, 242, 243, 244, 245, 246, 247, 248, 249, 250, 251, 252, 253, 254, 255, 256],
      "LargestImagePixelValue": [2963, 2947, 2918, 2903, 2896, 2917, 2878, 2859, 2888, 2935, 2894, 2945, 2906, 2905, 2888, 2939, 2918, 2899, 2926, 2898, 2914, 2903, 2908, 2924, 2926, 2884, 2875, 2871, 2855, 2861, 2892, 2921, 2898, 2908, 2919, 2891, 2884, 2886, 2864, 2880, 2889, 2911, 2893, 2891, 2899, 2875, 2898, 2912, 2879, 2885, 2879, 2888, 2886, 2889, 2865, 2869, 2883, 2883, 2879, 2848, 2867, 2866, 2838, 2863, 2861, 2873, 2871, 2859, 2880, 2837, 2878, 2847, 2856, 2855, 2919, 2923, 2957, 2965, 2913, 2869, 2892, 2902, 2910, 2884, 2932, 2889, 2910, 2888, 2914, 2896, 2891, 2905, 2878, 2870, 2907, 2901, 2896, 2888, 2887, 2876, 2874, 2845, 2870, 2867, 2927, 2885, 2904, 2880, 2865, 2908, 2913, 2867, 2859, 2856, 2869, 2884, 2839, 2857, 2845, 2885, 2845, 2871, 2888, 2879, 2889, 2881, 2877, 2900, 2883, 2894, 2895, 2881, 2884, 2905, 2907, 2880, 2903, 2882, 2880, 2911, 2921, 2921, 2916, 2916, 2926, 2920, 2878, 2902, 2922, 2915, 2923, 2963, 2921, 2930, 2953, 2938, 2934, 2918, 2896, 2848, 2863, 2875, 2860, 2880, 2882, 2910, 2936, 2921, 2873, 2881, 2886, 2860, 2880, 2856, 2899, 2859, 2881, 2869, 2884, 2872, 2894, 2907, 2921, 2923, 2911, 2890, 2897, 2915, 2896, 2900, 2916, 2931, 2899, 2895, 2901, 2872, 2871, 2867, 2911, 2883, 2884, 2879, 2908, 2914, 2912, 2937, 2924, 2923, 2929, 2931, 2926, 2939, 2929, 2929, 2951, 2961, 2936, 2923, 2942, 2919, 2948, 2939, 2947, 2931, 2932, 2910, 2925, 2923, 2917, 2919, 2939, 2960, 2954, 2951, 2942, 2933, 2939, 2910, 2913, 2941, 2921, 2948, 2947, 2926, 2910, 2947, 2916, 2917, 2935, 2950, 2957, 2952, 2936, 2944, 2942, 2952],
      "WindowCenter": [788.0, 787.0, 787.0, 786.0, 786.0, 785.0, 785.0, 785.0, 786.0, 786.0, 786.0, 786.0, 786.0, 785.0, 785.0, 786.0, 786.0, 785.0, 786.0, 785.0, 786.0, 786.0, 786.0, 786.0, 785.0, 784.0, 784.0, 784.0, 785.0, 785.0, 785.0, 785.0, 784.0, 784.0, 785.0, 784.0, 783.0, 784.0, 784.0, 784.0, 783.0, 784.0, 784.0, 784.0, 784.0, 783.0, 784.0, 784.0, 783.0, 784.0, 784.0, 785.0, 786.0, 785.0, 784.0, 783.0, 782.0, 782.0, 782.0, 782.0, 782.0, 782.0, 783.0, 784.0, 784.0, 784.0, 784.0, 783.0, 783.0, 783.0, 784.0, 783.0, 783.0, 784.0, 784.0, 785.0, 786.0, 786.0, 785.0, 784.0, 784.0, 785.0, 785.0, 784.0, 784.0, 784.0, 784.0, 784.0, 784.0, 784.0, 784.0, 784.0, 784.0, 784.0, 785.0, 785.0, 784.0, 784.0, 784.0, 784.0, 784.0, 783.0, 783.0, 783.0, 783.0, 783.0, 784.0, 784.0, 784.0, 784.0, 784.0, 783.0, 783.0, 784.0, 783.0, 783.0, 783.0, 783.0, 783.0, 784.0, 784.0, 785.0, 784.0, 784.0, 784.0, 784.0, 784.0, 785.0, 785.0, 785.0, 785.0, 784.0, 784.0, 784.0, 784.0, 784.0, 784.0, 785.0, 785.0, 785.0, 784.0, 783.0, 784.0, 785.0, 785.0, 784.0, 783.0, 783.0, 784.0, 784.0, 784.0, 783.0, 782.0, 784.0, 785.0, 785.0, 785.0, 784.0, 784.0, 783.0, 783.0, 783.0, 783.0, 784.0, 783.0, 784.0, 785.0, 784.0, 784.0, 783.0, 783.0, 783.0, 783.0, 783.0, 785.0, 784.0, 784.0, 782.0, 783.0, 783.0, 785.0, 785.0, 786.0, 785.0, 784.0, 784.0, 785.0, 785.0, 783.0, 783.0, 784.0, 784.0, 784.0, 784.0, 784.0, 783.0, 784.0, 785.0, 786.0, 784.0, 785.0, 785.0, 785.0, 785.0, 784.0, 784.0, 783.0, 784.0, 785.0, 785.0, 785.0, 786.0, 786.0, 785.0, 786.0, 786.0, 786.0, 785.0, 786.0, 785.0, 786.0, 786.0, 786.0, 785.0, 785.0, 785.0, 785.0, 785.0, 785.0, 784.0, 784.0, 784.0, 784.0, 784.0, 783.0, 783.0, 783.0, 783.0, 783.0, 783.0, 783.0, 783.0, 784.0, 784.0, 783.0, 783.0, 783.0, 784.0, 785.0, 785.0, 784.0, 784.0, 784.0, 784.0, 784.0, 786.0],
      "WindowWidth": [1692.0, 1689.0, 1689.0, 1688.0, 1687.0, 1685.0, 1685.0, 1686.0, 1686.0, 1688.0, 1687.0, 1688.0, 1687.0, 1685.0, 1685.0, 1688.0, 1688.0, 1686.0, 1688.0, 1686.0, 1686.0, 1687.0, 1687.0, 1687.0, 1686.0, 1682.0, 1681.0, 1683.0, 1686.0, 1686.0, 1685.0, 1684.0, 1682.0, 1683.0, 1685.0, 1682.0, 1680.0, 1682.0, 1683.0, 1682.0, 1680.0, 1681.0, 1682.0, 1683.0, 1682.0, 1681.0, 1683.0, 1681.0, 1680.0, 1681.0, 1682.0, 1685.0, 1687.0, 1685.0, 1681.0, 1679.0, 1677.0, 1678.0, 1677.0, 1676.0, 1677.0, 1678.0, 1679.0, 1681.0, 1681.0, 1683.0, 1682.0, 1680.0, 1680.0, 1679.0, 1681.0, 1680.0, 1680.0, 1681.0, 1683.0, 1684.0, 1687.0, 1687.0, 1686.0, 1683.0, 1683.0, 1684.0, 1686.0, 1682.0, 1683.0, 1681.0, 1682.0, 1682.0, 1683.0, 1682.0, 1683.0, 1682.0, 1680.0, 1681.0, 1683.0, 1683.0, 1682.0, 1682.0, 1681.0, 1681.0, 1682.0, 1680.0, 1680.0, 1678.0, 1679.0, 1680.0, 1683.0, 1682.0, 1682.0, 1683.0, 1681.0, 1678.0, 1681.0, 1682.0, 1680.0, 1680.0, 1678.0, 1679.0, 1679.0, 1682.0, 1681.0, 1683.0, 1683.0, 1682.0, 1682.0, 1681.0, 1682.0, 1683.0, 1683.0, 1683.0, 1683.0, 1682.0, 1682.0, 1681.0, 1682.0, 1681.0, 1683.0, 1684.0, 1684.0, 1683.0, 1681.0, 1680.0, 1682.0, 1684.0, 1685.0, 1682.0, 1680.0, 1680.0, 1683.0, 1683.0, 1681.0, 1679.0, 1677.0, 1681.0, 1685.0, 1684.0, 1684.0, 1683.0, 1681.0, 1678.0, 1679.0, 1680.0, 1680.0, 1681.0, 1680.0, 1683.0, 1684.0, 1682.0, 1681.0, 1680.0, 1679.0, 1679.0, 1680.0, 1679.0, 1685.0, 1682.0, 1681.0, 1677.0, 1678.0, 1679.0, 1683.0, 1686.0, 1687.0, 1685.0, 1683.0, 1681.0, 1683.0, 1683.0, 1680.0, 1680.0, 1681.0, 1682.0, 1682.0, 1681.0, 1681.0, 1680.0, 1681.0, 1683.0, 1686.0, 1682.0, 1683.0, 1683.0, 1684.0, 1684.0, 1683.0, 1682.0, 1680.0, 1682.0, 1684.0, 1685.0, 1684.0, 1686.0, 1686.0, 1685.0, 1686.0, 1686.0, 1686.0, 1684.0, 1686.0, 1685.0, 1686.0, 1686.0, 1686.0, 1684.0, 1684.0, 1684.0, 1683.0, 1683.0, 1683.0, 1682.0, 1681.0, 1682.0, 1681.0, 1681.0, 1679.0, 1679.0, 1679.0, 1679.0, 1679.0, 1679.0, 1679.0, 1680.0, 1682.0, 1680.0, 1679.0, 1679.0, 1680.0, 1681.0, 1684.0, 1685.0, 1682.0, 1682.0, 1681.0, 1682.0, 1683.0, 1687.0]
    },
    "slices": {}
  }
}