{
 "AcquisitionMatrixPE": 100,
 "AcquisitionNumber": 1,
 "AcquisitionTime": "11:29:33.150000",
 "BandwidthPerPixelPhaseEncode": 18.519,
 "BaseResolution": 100,
 "BodyPartExamined": "BRAIN",
 "ConsistencyInfo": "N4_VE11C_LATEST_20160120",
 "ConversionSoftware": "dcm2niix",
 "ConversionSoftwareVersion": "v1.0.20180622 GCC4.9.2",
 "DerivedVendorReportedEchoSpacing": 0.000539986,
 "DeviceSerialNumber": "166078",
 "DwellTime": 2.1e-06,
 "EchoTime": 0.034,
 "EchoTrainLength": 100,
 "EffectiveEchoSpacing": 0.000539986,
 "FlipAngle": 90,
 "ImageOrientationPatientDICOM": [
  1,
  0,
  0,
  0,
  0.965926,
  -0.258819
 ],
 "ImageType": [
  "ORIGINAL",
  "PRIMARY",
  "M",
  "ND",
  "MOSAIC"
 ],
 "InPlanePhaseEncodingDirectionDICOM": "COL",
 "InstitutionAddress": "Street_StreetNo_Bei_Jing_District_CN_ZIP",
 "InstitutionName": "BeiJing_Normal_University",
 "InstitutionalDepartmentName": "Department",
 "MRAcquisitionType": "2D",
 "MagneticFieldStrength": 3,
 "Manufacturer": "Siemens",
 "ManufacturersModelName": "Prisma",
 "Modality": "MR",
 "MultibandAccelerationFactor": 3,
 "PartialFourier": 1,
 "PatientPosition": "HFS",
 "PercentPhaseFOV": 100,
 "PhaseEncodingDirection": "j-",
 "PhaseEncodingSteps": 100,
 "PhaseResolution": 1,
 "PixelBandwidth": 2380,
 "ProcedureStepDescription": "BNU_P2018_64CH_Zhen.ZongLei",
 "ProtocolName": "bold_100x100_s3_2x2x2_static_256",
 "PulseSequenceDetails": "%SiemensSeq%_ep2d_bold",
 "ReceiveCoilActiveElements": "HC1-7;NC1",
 "ReceiveCoilName": "HeadNeck_64",
 "ReconMatrixPE": 100,
 "RepetitionTime": 2,
 "SAR": 0.079795,
 "ScanOptions": "FS",
 "ScanningSequence": "EP",
 "SequenceName": "_epfid2d1_100",
 "SequenceVariant": "SK",
 "SeriesDescription": "bold_100x100_s3_2x2x2_static_256",
 "SeriesNumber": 6,
 "ShimSetting": [
  -5457,
  -11517,
  -1251,
  545,
  -12,
  -206,
  -141,
  78
 ],
 "SliceThickness": 2,
 "SliceTiming": [
  1.485,
  0,
  0.99,
  0.0825,
  1.0725,
  0.165,
  1.155,
  0.2475,
  1.2375,
  0.33,
  1.32,
  0.4125,
  1.4025,
  0.5775,
  1.5675,
  0.66,
  1.65,
  0.7425,
  1.7325,
  0.825,
  1.815,
  0.9075,
  1.8975,
  0.495,
  1.485,
  0,
  0.99,
  0.0825,
  1.0725,
  0.165,
  1.155,
  0.2475,
  1.2375,
  0.33,
  1.32,
  0.4125,
  1.4025,
  0.5775,
  1.5675,
  0.66,
  1.65,
  0.7425,
  1.7325,
  0.825,
  1.815,
  0.9075,
  1.8975,
  0.495,
  1.485,
  0,
  0.99,
  0.0825,
  1.0725,
  0.165,
  1.155,
  0.2475,
  1.2375,
  0.33,
  1.32,
  0.4125,
  1.4025,
  0.5775,
  1.5675,
  0.66,
  1.65,
  0.7425,
  1.7325,
  0.825,
  1.815,
  0.9075,
  1.8975,
  0.495
 ],
 "SoftwareVersions": "syngo_MR_E11",
 "SpacingBetweenSlices": 2,
 "StationName": "AWP166078",
 "TaskName": "imagenet",
 "TotalReadoutTime": 0.0534586,
 "TxRefAmp": 230.327,
 "dcmmeta_affine": [
  [
   -2.0,
   0.0,
   0.0,
   101.34939575195312
  ],
  [
   0.0,
   1.9318516254425049,
   -0.517638087272644,
   -78.52554321289062
  ],
  [
   0.0,
   0.517638087272644,
   1.9318516254425049,
   -91.47753143310547
  ],
  [
   0.0,
   0.0,
   0.0,
   1.0
  ]
 ],
 "dcmmeta_reorient_transform": [
  [
   0.0,
   -1.0,
   0.0,
   99.0
  ],
  [
   1.0,
   0.0,
   0.0,
   0.0
  ],
  [
   0.0,
   0.0,
   1.0,
   0.0
  ],
  [
   0.0,
   0.0,
   0.0,
   1.0
  ]
 ],
 "dcmmeta_shape": [
  100,
  100,
  72,
  256
 ],
 "dcmmeta_slice_dim": 2,
 "dcmmeta_version": 0.6,
 "global": {
  "const": {
   "AcquisitionMatrix": [
    100,
    0,
    0,
    100
   ],
   "AngioFlag": "N",
   "BitsAllocated": 16,
   "BitsStored": 12,
   "BodyPartExamined": "BRAIN",
   "Columns": 900,
   "EchoNumbers": 1,
   "EchoTime": 34.0,
   "EchoTrainLength": 100,
   "FlipAngle": 90.0,
   "HighBit": 11,
   "ImageOrientationPatient": [
    1.0,
    0.0,
    0.0,
    0.0,
    0.9659258278573,
    -0.2588190392498
   ],
   "ImagePositionPatient": [
    -901.34939754009,
    -885.46843412797,
    166.82386933362
   ],
   "ImageType": [
    "ORIGINAL",
    "PRIMARY",
    "M",
    "ND",
    "MOSAIC"
   ],
   "ImagedNucleus": "1H",
   "ImagingFrequency": 123.257767,
   "InPlanePhaseEncodingDirection": "COL",
   "MRAcquisitionType": "2D",
   "MagneticFieldStrength": 3.0,
   "Manufacturer": "SIEMENS",
   "ManufacturerModelName": "Prisma",
   "Modality": "MR",
   "NumberOfAverages": 1.0,
   "NumberOfPhaseEncodingSteps": 100,
   "PercentPhaseFieldOfView": 100.0,
   "PercentSampling": 100.0,
   "PerformedProcedureStepStartTime": "105611.231000",
   "PhotometricInterpretation": "MONOCHROME2",
   "PixelBandwidth": 2380.0,
   "PixelRepresentation": 0,
   "PixelSpacing": [
    2.0,
    2.0
   ],
   "ProtocolName": "bold_100x100_s3_2x2x2_static_256",
   "RepetitionTime": 2000.0,
   "Rows": 900,
   "SAR": 0.07979500938357,
   "SamplesPerPixel": 1,
   "ScanOptions": "FS",
   "ScanningSequence": "EP",
   "SequenceName": "*epfid2d1_100",
   "SequenceVariant": "SK",
   "SeriesDescription": "bold_100x100_s3_2x2x2_static_256",
   "SeriesNumber": 6,
   "SeriesTime": "112935.691000",
   "SliceLocation": -68.036605314601,
   "SliceThickness": 2.0,
   "SmallestImagePixelValue": 0,
   "SoftwareVersions": "syngo MR E11",
   "SpacingBetweenSlices": 2.000000021715,
   "SpecificCharacterSet": "ISO_IR 100",
   "StudyID": "1",
   "StudyTime": "105611.144000",
   "TransmitCoilName": "Body",
   "VariableFlipAngleFlag": "N",
   "WindowCenterWidthExplanation": "Algo1",
   "dBdt": 0.0
  },
  "slices": {}
 },
 "time": {
  "samples": {
   "AcquisitionNumber": [
    1,
    2,
    3,
    4,
    5,
    6,
    7,
    8,
    9,
    10,
    11,
    12,
    13,
    14,
    15,
    16,
    17,
    18,
    19,
    20,
    21,
    22,
    23,
    24,
    25,
    26,
    27,
    28,
    29,
    30,
    31,
    32,
    33,
    34,
    35,
    36,
    37,
    38,
    39,
    40,
    41,
    42,
    43,
    44,
    45,
    46,
    47,
    48,
    49,
    50,
    51,
    52,
    53,
    54,
    55,
    56,
    57,
    58,
    59,
    60,
    61,
    62,
    63,
    64,
    65,
    66,
    67,
    68,
    69,
    70,
    71,
    72,
    73,
    74,
    75,
    76,
    77,
    78,
    79,
    80,
    81,
    82,
    83,
    84,
    85,
    86,
    87,
    88,
    89,
    90,
    91,
    92,
    93,
    94,
    95,
    96,
    97,
    98,
    99,
    100,
    101,
    102,
    103,
    104,
    105,
    106,
    107,
    108,
    109,
    110,
    111,
    112,
    113,
    114,
    115,
    116,
    117,
    118,
    119,
    120,
    121,
    122,
    123,
    124,
    125,
    126,
    127,
    128,
    129,
    130,
    131,
    132,
    133,
    134,
    135,
    136,
    137,
    138,
    139,
    140,
    141,
    142,
    143,
    144,
    145,
    146,
    147,
    148,
    149,
    150,
    151,
    152,
    153,
    154,
    155,
    156,
    157,
    158,
    159,
    160,
    161,
    162,
    163,
    164,
    165,
    166,
    167,
    168,
    169,
    170,
    171,
    172,
    173,
    174,
    175,
    176,
    177,
    178,
    179,
    180,
    181,
    182,
    183,
    184,
    185,
    186,
    187,
    188,
    189,
    190,
    191,
    192,
    193,
    194,
    195,
    196,
    197,
    198,
    199,
    200,
    201,
    202,
    203,
    204,
    205,
    206,
    207,
    208,
    209,
    210,
    211,
    212,
    213,
    214,
    215,
    216,
    217,
    218,
    219,
    220,
    221,
    222,
    223,
    224,
    225,
    226,
    227,
    228,
    229,
    230,
    231,
    232,
    233,
    234,
    235,
    236,
    237,
    238,
    239,
    240,
    241,
    242,
    243,
    244,
    245,
    246,
    247,
    248,
    249,
    250,
    251,
    252,
    253,
    254,
    255,
    256
   ],
   "AcquisitionTime": [
    "112933.150000",
    "112935.150000",
    "112937.150000",
    "112939.150000",
    "112941.150000",
    "112943.150000",
    "112945.150000",
    "112947.150000",
    "112949.150000",
    "112951.150000",
    "112953.150000",
    "112955.150000",
    "112957.150000",
    "112959.150000",
    "113001.150000",
    "113003.150000",
    "113005.150000",
    "113007.150000",
    "113009.150000",
    "113011.150000",
    "113013.150000",
    "113015.150000",
    "113017.150000",
    "113019.150000",
    "113021.150000",
    "113023.150000",
    "113025.150000",
    "113027.150000",
    "113029.150000",
    "113031.150000",
    "113033.150000",
    "113035.150000",
    "113037.150000",
    "113039.150000",
    "113041.150000",
    "113043.150000",
    "113045.150000",
    "113047.150000",
    "113049.150000",
    "113051.150000",
    "113053.150000",
    "113055.150000",
    "113057.150000",
    "113059.150000",
    "113101.150000",
    "113103.150000",
    "113105.150000",
    "113107.150000",
    "113109.150000",
    "113111.150000",
    "113113.150000",
    "113115.150000",
    "113117.150000",
    "113119.150000",
    "113121.150000",
    "113123.150000",
    "113125.150000",
    "113127.150000",
    "113129.150000",
    "113131.150000",
    "113133.150000",
    "113135.150000",
    "113137.150000",
    "113139.150000",
    "113141.150000",
    "113143.150000",
    "113145.150000",
    "113147.150000",
    "113149.150000",
    "113151.150000",
    "113153.150000",
    "113155.150000",
    "113157.150000",
    "113159.150000",
    "113201.150000",
    "113203.150000",
    "113205.150000",
    "113207.150000",
    "113209.150000",
    "113211.150000",
    "113213.150000",
    "113215.150000",
    "113217.150000",
    "113219.150000",
    "113221.150000",
    "113223.150000",
    "113225.150000",
    "113227.150000",
    "113229.150000",
    "113231.150000",
    "113233.150000",
    "113235.150000",
    "113237.150000",
    "113239.150000",
    "113241.150000",
    "113243.150000",
    "113245.150000",
    "113247.150000",
    "113249.150000",
    "113251.150000",
    "113253.150000",
    "113255.150000",
    "113257.150000",
    "113259.150000",
    "113301.150000",
    "113303.150000",
    "113305.150000",
    "113307.150000",
    "113309.150000",
    "113311.150000",
    "113313.150000",
    "113315.150000",
    "113317.150000",
    "113319.150000",
    "113321.150000",
    "113323.150000",
    "113325.150000",
    "113327.150000",
    "113329.150000",
    "113331.150000",
    "113333.150000",
    "113335.150000",
    "113337.150000",
    "113339.150000",
    "113341.150000",
    "113343.150000",
    "113345.150000",
    "113347.150000",
    "113349.150000",
    "113351.150000",
    "113353.150000",
    "113355.150000",
    "113357.150000",
    "113359.150000",
    "113401.150000",
    "113403.150000",
    "113405.150000",
    "113407.150000",
    "113409.150000",
    "113411.150000",
    "113413.150000",
    "113415.150000",
    "113417.150000",
    "113419.150000",
    "113421.150000",
    "113423.150000",
    "113425.150000",
    "113427.150000",
    "113429.150000",
    "113431.150000",
    "113433.150000",
    "113435.150000",
    "113437.150000",
    "113439.150000",
    "113441.150000",
    "113443.150000",
    "113445.150000",
    "113447.150000",
    "113449.150000",
    "113451.150000",
    "113453.150000",
    "113455.150000",
    "113457.150000",
    "113459.150000",
    "113501.150000",
    "113503.150000",
    "113505.150000",
    "113507.150000",
    "113509.150000",
    "113511.150000",
    "113513.150000",
    "113515.150000",
    "113517.150000",
    "113519.150000",
    "113521.150000",
    "113523.150000",
    "113525.150000",
    "113527.150000",
    "113529.150000",
    "113531.150000",
    "113533.150000",
    "113535.150000",
    "113537.150000",
    "113539.150000",
    "113541.150000",
    "113543.150000",
    "113545.150000",
    "113547.150000",
    "113549.150000",
    "113551.150000",
    "113553.150000",
    "113555.150000",
    "113557.150000",
    "113559.150000",
    "113601.150000",
    "113603.150000",
    "113605.150000",
    "113607.150000",
    "113609.150000",
    "113611.150000",
    "113613.150000",
    "113615.150000",
    "113617.150000",
    "113619.150000",
    "113621.150000",
    "113623.150000",
    "113625.150000",
    "113627.150000",
    "113629.150000",
    "113631.150000",
    "113633.150000",
    "113635.150000",
    "113637.150000",
    "113639.150000",
    "113641.150000",
    "113643.150000",
    "113645.150000",
    "113647.150000",
    "113649.150000",
    "113651.150000",
    "113653.150000",
    "113655.150000",
    "113657.150000",
    "113659.150000",
    "113701.150000",
    "113703.150000",
    "113705.150000",
    "113707.150000",
    "113709.150000",
    "113711.150000",
    "113713.150000",
    "113715.150000",
    "113717.150000",
    "113719.150000",
    "113721.150000",
    "113723.150000",
    "113725.150000",
    "113727.150000",
    "113729.150000",
    "113731.150000",
    "113733.150000",
    "113735.150000",
    "113737.150000",
    "113739.150000",
    "113741.150000",
    "113743.150000",
    "113745.150000",
    "113747.150000",
    "113749.150000",
    "113751.150000",
    "113753.150000",
    "113755.150000",
    "113757.150000",
    "113759.150000",
    "113801.150000",
    "113803.150000"
   ],
   "ContentTime": [
    "112935.695000",
    "112937.191000",
    "112939.189000",
    "112941.189000",
    "112943.189000",
    "112945.190000",
    "112947.190000",
    "112949.191000",
    "112951.191000",
    "112953.210000",
    "112955.190000",
    "112957.190000",
    "112959.189000",
    "113001.190000",
    "113003.189000",
    "113005.189000",
    "113007.190000",
    "113009.191000",
    "113011.191000",
    "113013.191000",
    "113015.189000",
    "113017.190000",
    "113019.190000",
    "113021.189000",
    "113023.190000",
    "113025.191000",
    "113027.191000",
    "113029.191000",
    "113031.191000",
    "113033.189000",
    "113035.190000",
    "113037.190000",
    "113039.189000",
    "113041.190000",
    "113043.190000",
    "113045.190000",
    "113047.191000",
    "113049.190000",
    "113051.189000",
    "113053.190000",
    "113055.190000",
    "113057.189000",
    "113059.191000",
    "113101.191000",
    "113103.191000",
    "113105.191000",
    "113107.189000",
    "113109.190000",
    "113111.189000",
    "113113.189000",
    "113115.190000",
    "113117.191000",
    "113119.191000",
    "113121.191000",
    "113123.191000",
    "113125.190000",
    "113127.190000",
    "113129.189000",
    "113131.190000",
    "113133.189000",
    "113135.191000",
    "113137.191000",
    "113139.190000",
    "113141.191000",
    "113143.189000",
    "113145.190000",
    "113147.189000",
    "113149.190000",
    "113151.191000",
    "113153.191000",
    "113155.191000",
    "113157.190000",
    "113159.189000",
    "113201.189000",
    "113203.190000",
    "113205.189000",
    "113207.190000",
    "113209.191000",
    "113211.191000",
    "113213.191000",
    "113215.211000",
    "113217.189000",
    "113219.189000",
    "113221.190000",
    "113223.189000",
    "113225.190000",
    "113227.191000",
    "113229.211000",
    "113231.191000",
    "113233.191000",
    "113235.190000",
    "113237.190000",
    "113239.189000",
    "113241.189000",
    "113243.189000",
    "113245.191000",
    "113247.191000",
    "113249.191000",
    "113251.191000",
    "113253.189000",
    "113255.190000",
    "113257.190000",
    "113259.190000",
    "113301.211000",
    "113303.210000",
    "113305.191000",
    "113307.191000",
    "113309.189000",
    "113311.189000",
    "113313.189000",
    "113315.190000",
    "113317.189000",
    "113319.191000",
    "113321.191000",
    "113323.191000",
    "113325.191000",
    "113327.189000",
    "113329.189000",
    "113331.190000",
    "113333.190000",
    "113335.190000",
    "113337.191000",
    "113339.191000",
    "113341.191000",
    "113343.191000",
    "113345.190000",
    "113347.189000",
    "113349.190000",
    "113351.190000",
    "113353.190000",
    "113355.191000",
    "113357.191000",
    "113359.205000",
    "113401.191000",
    "113403.189000",
    "113405.190000",
    "113407.190000",
    "113409.190000",
    "113411.191000",
    "113413.191000",
    "113415.191000",
    "113417.191000",
    "113419.189000",
    "113421.189000",
    "113423.189000",
    "113425.190000",
    "113427.190000",
    "113429.191000",
    "113431.191000",
    "113433.190000",
    "113435.191000",
    "113437.189000",
    "113439.189000",
    "113441.190000",
    "113443.189000",
    "113445.190000",
    "113447.191000",
    "113449.191000",
    "113451.191000",
    "113453.191000",
    "113455.190000",
    "113457.189000",
    "113459.190000",
    "113501.190000",
    "113503.189000",
    "113505.191000",
    "113507.191000",
    "113509.191000",
    "113511.191000",
    "113513.189000",
    "113515.190000",
    "113517.189000",
    "113519.189000",
    "113521.210000",
    "113523.210000",
    "113525.191000",
    "113527.191000",
    "113529.190000",
    "113531.190000",
    "113533.190000",
    "113535.190000",
    "113537.190000",
    "113539.191000",
    "113541.191000",
    "113543.191000",
    "113545.191000",
    "113547.189000",
    "113549.189000",
    "113551.190000",
    "113553.189000",
    "113555.190000",
    "113557.191000",
    "113559.191000",
    "113601.191000",
    "113603.191000",
    "113605.190000",
    "113607.189000",
    "113609.190000",
    "113611.190000",
    "113613.189000",
    "113615.191000",
    "113617.191000",
    "113619.191000",
    "113621.191000",
    "113623.190000",
    "113625.190000",
    "113627.189000",
    "113629.190000",
    "113631.191000",
    "113633.191000",
    "113635.191000",
    "113637.191000",
    "113639.189000",
    "113641.190000",
    "113643.189000",
    "113645.190000",
    "113647.189000",
    "113649.211000",
    "113651.191000",
    "113653.191000",
    "113655.191000",
    "113657.190000",
    "113659.189000",
    "113701.190000",
    "113703.190000",
    "113705.190000",
    "113707.191000",
    "113709.191000",
    "113711.191000",
    "113713.211000",
    "113715.190000",
    "113717.190000",
    "113719.190000",
    "113721.189000",
    "113723.190000",
    "113725.191000",
    "113727.191000",
    "113729.191000",
    "113731.190000",
    "113733.189000",
    "113735.189000",
    "113737.190000",
    "113739.190000",
    "113741.191000",
    "113743.191000",
    "113745.191000",
    "113747.191000",
    "113749.189000",
    "113751.190000",
    "113753.190000",
    "113755.190000",
    "113757.190000",
    "113759.210000",
    "113801.191000",
    "113803.191000",
    "113804.849000"
   ],
   "InstanceCreationTime": [
    "112935.695000",
    "112937.191000",
    "112939.189000",
    "112941.189000",
    "112943.189000",
    "112945.190000",
    "112947.190000",
    "112949.191000",
    "112951.191000",
    "112953.210000",
    "112955.190000",
    "112957.190000",
    "112959.189000",
    "113001.190000",
    "113003.189000",
    "113005.189000",
    "113007.190000",
    "113009.191000",
    "113011.191000",
    "113013.191000",
    "113015.189000",
    "113017.190000",
    "113019.190000",
    "113021.189000",
    "113023.190000",
    "113025.191000",
    "113027.191000",
    "113029.191000",
    "113031.191000",
    "113033.189000",
    "113035.190000",
    "113037.190000",
    "113039.189000",
    "113041.190000",
    "113043.190000",
    "113045.190000",
    "113047.191000",
    "113049.190000",
    "113051.189000",
    "113053.190000",
    "113055.190000",
    "113057.189000",
    "113059.191000",
    "113101.191000",
    "113103.191000",
    "113105.191000",
    "113107.189000",
    "113109.190000",
    "113111.189000",
    "113113.189000",
    "113115.190000",
    "113117.191000",
    "113119.191000",
    "113121.191000",
    "113123.191000",
    "113125.190000",
    "113127.190000",
    "113129.189000",
    "113131.190000",
    "113133.189000",
    "113135.191000",
    "113137.191000",
    "113139.190000",
    "113141.191000",
    "113143.189000",
    "113145.190000",
    "113147.189000",
    "113149.190000",
    "113151.191000",
    "113153.191000",
    "113155.191000",
    "113157.190000",
    "113159.189000",
    "113201.189000",
    "113203.190000",
    "113205.189000",
    "113207.190000",
    "113209.191000",
    "113211.191000",
    "113213.191000",
    "113215.211000",
    "113217.189000",
    "113219.189000",
    "113221.190000",
    "113223.189000",
    "113225.190000",
    "113227.191000",
    "113229.211000",
    "113231.191000",
    "113233.191000",
    "113235.190000",
    "113237.190000",
    "113239.189000",
    "113241.189000",
    "113243.189000",
    "113245.191000",
    "113247.191000",
    "113249.191000",
    "113251.191000",
    "113253.189000",
    "113255.190000",
    "113257.190000",
    "113259.190000",
    "113301.211000",
    "113303.210000",
    "113305.191000",
    "113307.191000",
    "113309.189000",
    "113311.189000",
    "113313.189000",
    "113315.190000",
    "113317.189000",
    "113319.191000",
    "113321.191000",
    "113323.191000",
    "113325.191000",
    "113327.189000",
    "113329.189000",
    "113331.190000",
    "113333.190000",
    "113335.190000",
    "113337.191000",
    "113339.191000",
    "113341.191000",
    "113343.191000",
    "113345.190000",
    "113347.189000",
    "113349.190000",
    "113351.190000",
    "113353.190000",
    "113355.191000",
    "113357.191000",
    "113359.205000",
    "113401.191000",
    "113403.189000",
    "113405.190000",
    "113407.190000",
    "113409.190000",
    "113411.191000",
    "113413.191000",
    "113415.191000",
    "113417.191000",
    "113419.189000",
    "113421.189000",
    "113423.189000",
    "113425.190000",
    "113427.190000",
    "113429.191000",
    "113431.191000",
    "113433.190000",
    "113435.191000",
    "113437.189000",
    "113439.189000",
    "113441.190000",
    "113443.189000",
    "113445.190000",
    "113447.191000",
    "113449.191000",
    "113451.191000",
    "113453.191000",
    "113455.190000",
    "113457.189000",
    "113459.190000",
    "113501.190000",
    "113503.189000",
    "113505.191000",
    "113507.191000",
    "113509.191000",
    "113511.191000",
    "113513.189000",
    "113515.190000",
    "113517.189000",
    "113519.189000",
    "113521.210000",
    "113523.210000",
    "113525.191000",
    "113527.191000",
    "113529.190000",
    "113531.190000",
    "113533.190000",
    "113535.190000",
    "113537.190000",
    "113539.191000",
    "113541.191000",
    "113543.191000",
    "113545.191000",
    "113547.189000",
    "113549.189000",
    "113551.190000",
    "113553.189000",
    "113555.190000",
    "113557.191000",
    "113559.191000",
    "113601.191000",
    "113603.191000",
    "113605.190000",
    "113607.189000",
    "113609.190000",
    "113611.190000",
    "113613.189000",
    "113615.191000",
    "113617.191000",
    "113619.191000",
    "113621.191000",
    "113623.190000",
    "113625.190000",
    "113627.189000",
    "113629.190000",
    "113631.191000",
    "113633.191000",
    "113635.191000",
    "113637.191000",
    "113639.189000",
    "113641.190000",
    "113643.189000",
    "113645.190000",
    "113647.189000",
    "113649.211000",
    "113651.191000",
    "113653.191000",
    "113655.191000",
    "113657.190000",
    "113659.189000",
    "113701.190000",
    "113703.190000",
    "113705.190000",
    "113707.191000",
    "113709.191000",
    "113711.191000",
    "113713.211000",
    "113715.190000",
    "113717.190000",
    "113719.190000",
    "113721.189000",
    "113723.190000",
    "113725.191000",
    "113727.191000",
    "113729.191000",
    "113731.190000",
    "113733.189000",
    "113735.189000",
    "113737.190000",
    "113739.190000",
    "113741.191000",
    "113743.191000",
    "113745.191000",
    "113747.191000",
    "113749.189000",
    "113751.190000",
    "113753.190000",
    "113755.190000",
    "113757.190000",
    "113759.210000",
    "113801.191000",
    "113803.191000",
    "113804.849000"
   ],
   "InstanceNumber": [
    1,
    2,
    3,
    4,
    5,
    6,
    7,
    8,
    9,
    10,
    11,
    12,
    13,
    14,
    15,
    16,
    17,
    18,
    19,
    20,
    21,
    22,
    23,
    24,
    25,
    26,
    27,
    28,
    29,
    30,
    31,
    32,
    33,
    34,
    35,
    36,
    37,
    38,
    39,
    40,
    41,
    42,
    43,
    44,
    45,
    46,
    47,
    48,
    49,
    50,
    51,
    52,
    53,
    54,
    55,
    56,
    57,
    58,
    59,
    60,
    61,
    62,
    63,
    64,
    65,
    66,
    67,
    68,
    69,
    70,
    71,
    72,
    73,
    74,
    75,
    76,
    77,
    78,
    79,
    80,
    81,
    82,
    83,
    84,
    85,
    86,
    87,
    88,
    89,
    90,
    91,
    92,
    93,
    94,
    95,
    96,
    97,
    98,
    99,
    100,
    101,
    102,
    103,
    104,
    105,
    106,
    107,
    108,
    109,
    110,
    111,
    112,
    113,
    114,
    115,
    116,
    117,
    118,
    119,
    120,
    121,
    122,
    123,
    124,
    125,
    126,
    127,
    128,
    129,
    130,
    131,
    132,
    133,
    134,
    135,
    136,
    137,
    138,
    139,
    140,
    141,
    142,
    143,
    144,
    145,
    146,
    147,
    148,
    149,
    150,
    151,
    152,
    153,
    154,
    155,
    156,
    157,
    158,
    159,
    160,
    161,
    162,
    163,
    164,
    165,
    166,
    167,
    168,
    169,
    170,
    171,
    172,
    173,
    174,
    175,
    176,
    177,
    178,
    179,
    180,
    181,
    182,
    183,
    184,
    185,
    186,
    187,
    188,
    189,
    190,
    191,
    192,
    193,
    194,
    195,
    196,
    197,
    198,
    199,
    200,
    201,
    202,
    203,
    204,
    205,
    206,
    207,
    208,
    209,
    210,
    211,
    212,
    213,
    214,
    215,
    216,
    217,
    218,
    219,
    220,
    221,
    222,
    223,
    224,
    225,
    226,
    227,
    228,
    229,
    230,
    231,
    232,
    233,
    234,
    235,
    236,
    237,
    238,
    239,
    240,
    241,
    242,
    243,
    244,
    245,
    246,
    247,
    248,
    249,
    250,
    251,
    252,
    253,
    254,
    255,
    256
   ],
   "LargestImagePixelValue": [
    3089,
    3070,
    3000,
    3055,
    3011,
    3022,
    2996,
    3008,
    2978,
    2999,
    2994,
    3004,
    3020,
    2990,
    3001,
    2990,
    2970,
    2994,
    2976,
    3027,
    3016,
    2988,
    3013,
    2974,
    3029,
    3004,
    3030,
    3019,
    2994,
    3024,
    3020,
    3053,
    3002,
    3007,
    3020,
    3008,
    3037,
    2998,
    3019,
    2978,
    2984,
    3000,
    3024,
    3016,
    3017,
    3040,
    3013,
    3037,
    2993,
    3012,
    3026,
    3008,
    3039,
    2979,
    3039,
    2970,
    2984,
    3011,
    3068,
    2956,
    3013,
    3009,
    3010,
    3012,
    3014,
    3016,
    3006,
    3032,
    3044,
    3024,
    3051,
    3035,
    2992,
    3055,
    3012,
    3030,
    3010,
    2996,
    3026,
    2980,
    2996,
    3049,
    3002,
    2996,
    3035,
    3042,
    3021,
    3083,
    3030,
    3039,
    3056,
    3014,
    3067,
    3020,
    3006,
    3048,
    3022,
    3034,
    3034,
    3047,
    3065,
    3055,
    3003,
    3028,
    3020,
    3024,
    3029,
    3019,
    3024,
    3025,
    3029,
    3053,
    3003,
    3055,
    3010,
    3027,
    3085,
    3034,
    3003,
    3035,
    3048,
    3029,
    3016,
    3025,
    2990,
    3049,
    3019,
    3076,
    3058,
    3033,
    3028,
    3035,
    3039,
    3070,
    3057,
    3044,
    3095,
    3058,
    3033,
    3057,
    3025,
    3066,
    3044,
    3061,
    3077,
    3031,
    3048,
    3044,
    3032,
    3058,
    3082,
    3022,
    3073,
    3029,
    3028,
    3034,
    3006,
    3036,
    3004,
    3048,
    3039,
    3035,
    3079,
    3009,
    3070,
    3018,
    3066,
    3046,
    3038,
    3080,
    3019,
    2998,
    3028,
    3017,
    3032,
    3039,
    3041,
    3063,
    3056,
    3012,
    3061,
    3048,
    3081,
    3010,
    3046,
    3021,
    3044,
    3061,
    3042,
    3064,
    3011,
    3044,
    3051,
    3080,
    3066,
    3025,
    3088,
    3049,
    3042,
    3068,
    3034,
    3082,
    3048,
    3045,
    3020,
    3014,
    3037,
    3055,
    3003,
    3003,
    3012,
    3078,
    3055,
    3036,
    3047,
    2993,
    3010,
    3074,
    3037,
    3062,
    3029,
    3052,
    3071,
    3069,
    3045,
    3045,
    3039,
    3039,
    3014,
    3039,
    3029,
    3055,
    3042,
    3035,
    3035,
    3063,
    3074,
    3054,
    3016,
    3034,
    3057,
    3022,
    3025,
    3041,
    3054,
    3036,
    3091,
    3077,
    3087,
    3000,
    3061,
    3047,
    3072,
    3060,
    3041,
    3051
   ],
   "WindowCenter": [
    774.0,
    772.0,
    772.0,
    773.0,
    773.0,
    773.0,
    772.0,
    772.0,
    773.0,
    773.0,
    773.0,
    772.0,
    773.0,
    773.0,
    772.0,
    772.0,
    772.0,
    772.0,
    773.0,
    773.0,
    772.0,
    772.0,
    773.0,
    773.0,
    773.0,
    772.0,
    771.0,
    772.0,
    772.0,
    771.0,
    771.0,
    771.0,
    771.0,
    770.0,
    770.0,
    770.0,
    771.0,
    770.0,
    771.0,
    770.0,
    771.0,
    771.0,
    770.0,
    769.0,
    769.0,
    770.0,
    771.0,
    771.0,
    770.0,
    770.0,
    769.0,
    769.0,
    770.0,
    769.0,
    770.0,
    770.0,
    770.0,
    770.0,
    770.0,
    770.0,
    771.0,
    770.0,
    770.0,
    770.0,
    770.0,
    772.0,
    772.0,
    772.0,
    771.0,
    770.0,
    771.0,
    771.0,
    770.0,
    771.0,
    770.0,
    771.0,
    771.0,
    770.0,
    771.0,
    770.0,
    769.0,
    771.0,
    771.0,
    772.0,
    771.0,
    771.0,
    770.0,
    770.0,
    770.0,
    770.0,
    770.0,
    770.0,
    771.0,
    772.0,
    772.0,
    771.0,
    771.0,
    772.0,
    771.0,
    771.0,
    771.0,
    770.0,
    771.0,
    770.0,
    770.0,
    771.0,
    771.0,
    771.0,
    772.0,
    771.0,
    771.0,
    771.0,
    770.0,
    770.0,
    770.0,
    769.0,
    769.0,
    771.0,
    771.0,
    771.0,
    770.0,
    770.0,
    769.0,
    770.0,
    770.0,
