{
 "AcquisitionMatrixPE": 100,
 "AcquisitionNumber": 1,
 "AcquisitionTime": "11:39:17.450000",
 "BandwidthPerPixelPhaseEncode": 18.519,
 "BaseResolution": 100,
 "BodyPartExamined": "BRAIN",
 "ConsistencyInfo": "N4_VE11C_LATEST_20160120",
 "ConversionSoftware": "dcm2niix",
 "ConversionSoftwareVersion": "v1.0.20180622 GCC4.9.2",
 "DerivedVendorReportedEchoSpacing": 0.000539986,
 "DeviceSerialNumber": "166078",
 "DwellTime": 2.1e-06,
 "EchoTime": 0.034,
 "EchoTrainLength": 100,
 "EffectiveEchoSpacing": 0.000539986,
 "FlipAngle": 90,
 "ImageOrientationPatientDICOM": [
  1,
  0,
  0,
  0,
  0.965926,
  -0.258819
 ],
 "ImageType": [
  "ORIGINAL",
  "PRIMARY",
  "M",
  "ND",
  "MOSAIC"
 ],
 "InPlanePhaseEncodingDirectionDICOM": "COL",
 "InstitutionAddress": "Street_StreetNo_Bei_Jing_District_CN_ZIP",
 "InstitutionName": "BeiJing_Normal_University",
 "InstitutionalDepartmentName": "Department",
 "MRAcquisitionType": "2D",
 "MagneticFieldStrength": 3,
 "Manufacturer": "Siemens",
 "ManufacturersModelName": "Prisma",
 "Modality": "MR",
 "MultibandAccelerationFactor": 3,
 "PartialFourier": 1,
 "PatientPosition": "HFS",
 "PercentPhaseFOV": 100,
 "PhaseEncodingDirection": "j-",
 "PhaseEncodingSteps": 100,
 "PhaseResolution": 1,
 "PixelBandwidth": 2380,
 "ProcedureStepDescription": "BNU_P2018_64CH_Zhen.ZongLei",
 "ProtocolName": "bold_100x100_s3_2x2x2_static_256",
 "PulseSequenceDetails": "%SiemensSeq%_ep2d_bold",
 "ReceiveCoilActiveElements": "HC1-7;NC1",
 "ReceiveCoilName": "HeadNeck_64",
 "ReconMatrixPE": 100,
 "RepetitionTime": 2,
 "SAR": 0.079795,
 "ScanOptions": "FS",
 "ScanningSequence": "EP",
 "SequenceName": "_epfid2d1_100",
 "SequenceVariant": "SK",
 "SeriesDescription": "bold_100x100_s3_2x2x2_static_256",
 "SeriesNumber": 7,
 "ShimSetting": [
  -5457,
  -11517,
  -1251,
  545,
  -12,
  -206,
  -141,
  78
 ],
 "SliceThickness": 2,
 "SliceTiming": [
  1.485,
  0,
  0.99,
  0.0825,
  1.0725,
  0.165,
  1.155,
  0.2475,
  1.2375,
  0.33,
  1.32,
  0.4125,
  1.4025,
  0.5775,
  1.5675,
  0.66,
  1.65,
  0.7425,
  1.7325,
  0.825,
  1.815,
  0.9075,
  1.8975,
  0.495,
  1.485,
  0,
  0.99,
  0.0825,
  1.0725,
  0.165,
  1.155,
  0.2475,
  1.2375,
  0.33,
  1.32,
  0.4125,
  1.4025,
  0.5775,
  1.5675,
  0.66,
  1.65,
  0.7425,
  1.7325,
  0.825,
  1.815,
  0.9075,
  1.8975,
  0.495,
  1.485,
  0,
  0.99,
  0.0825,
  1.0725,
  0.165,
  1.155,
  0.2475,
  1.2375,
  0.33,
  1.32,
  0.4125,
  1.4025,
  0.5775,
  1.5675,
  0.66,
  1.65,
  0.7425,
  1.7325,
  0.825,
  1.815,
  0.9075,
  1.8975,
  0.495
 ],
 "SoftwareVersions": "syngo_MR_E11",
 "SpacingBetweenSlices": 2,
 "StationName": "AWP166078",
 "TaskName": "imagenet",
 "TotalReadoutTime": 0.0534586,
 "TxRefAmp": 230.327,
 "dcmmeta_affine": [
  [
   -2.0,
   0.0,
   0.0,
   101.34939575195312
  ],
  [
   0.0,
   1.9318516254425049,
   -0.517638087272644,
   -78.52554321289062
  ],
  [
   0.0,
   0.517638087272644,
   1.9318516254425049,
   -91.47753143310547
  ],
  [
   0.0,
   0.0,
   0.0,
   1.0
  ]
 ],
 "dcmmeta_reorient_transform": [
  [
   0.0,
   -1.0,
   0.0,
   99.0
  ],
  [
   1.0,
   0.0,
   0.0,
   0.0
  ],
  [
   0.0,
   0.0,
   1.0,
   0.0
  ],
  [
   0.0,
   0.0,
   0.0,
   1.0
  ]
 ],
 "dcmmeta_shape": [
  100,
  100,
  72,
  256
 ],
 "dcmmeta_slice_dim": 2,
 "dcmmeta_version": 0.6,
 "global": {
  "const": {
   "AcquisitionMatrix": [
    100,
    0,
    0,
    100
   ],
   "AngioFlag": "N",
   "BitsAllocated": 16,
   "BitsStored": 12,
   "BodyPartExamined": "BRAIN",
   "Columns": 900,
   "EchoNumbers": 1,
   "EchoTime": 34.0,
   "EchoTrainLength": 100,
   "FlipAngle": 90.0,
   "HighBit": 11,
   "ImageOrientationPatient": [
    1.0,
    0.0,
    0.0,
    0.0,
    0.9659258278573,
    -0.2588190392498
   ],
   "ImagePositionPatient": [
    -901.34939754009,
    -885.46843412797,
    166.82386933362
   ],
   "ImageType": [
    "ORIGINAL",
    "PRIMARY",
    "M",
    "ND",
    "MOSAIC"
   ],
   "ImagedNucleus": "1H",
   "ImagingFrequency": 123.257766,
   "InPlanePhaseEncodingDirection": "COL",
   "MRAcquisitionType": "2D",
   "MagneticFieldStrength": 3.0,
   "Manufacturer": "SIEMENS",
   "ManufacturerModelName": "Prisma",
   "Modality": "MR",
   "NumberOfAverages": 1.0,
   "NumberOfPhaseEncodingSteps": 100,
   "PercentPhaseFieldOfView": 100.0,
   "PercentSampling": 100.0,
   "PerformedProcedureStepStartTime": "105611.231000",
   "PhotometricInterpretation": "MONOCHROME2",
   "PixelBandwidth": 2380.0,
   "PixelRepresentation": 0,
   "PixelSpacing": [
    2.0,
    2.0
   ],
   "ProtocolName": "bold_100x100_s3_2x2x2_static_256",
   "RepetitionTime": 2000.0,
   "Rows": 900,
   "SAR": 0.07979500938357,
   "SamplesPerPixel": 1,
   "ScanOptions": "FS",
   "ScanningSequence": "EP",
   "SequenceName": "*epfid2d1_100",
   "SequenceVariant": "SK",
   "SeriesDescription": "bold_100x100_s3_2x2x2_static_256",
   "SeriesNumber": 7,
   "SeriesTime": "113920.567000",
   "SliceLocation": -68.036605314601,
   "SliceThickness": 2.0,
   "SmallestImagePixelValue": 0,
   "SoftwareVersions": "syngo MR E11",
   "SpacingBetweenSlices": 2.000000021715,
   "SpecificCharacterSet": "ISO_IR 100",
   "StudyID": "1",
   "StudyTime": "105611.144000",
   "TransmitCoilName": "Body",
   "VariableFlipAngleFlag": "N",
   "WindowCenterWidthExplanation": "Algo1",
   "dBdt": 0.0
  },
  "slices": {}
 },
 "time": {
  "samples": {
   "AcquisitionNumber": [
    1,
    2,
    3,
    4,
    5,
    6,
    7,
    8,
    9,
    10,
    11,
    12,
    13,
    14,
    15,
    16,
    17,
    18,
    19,
    20,
    21,
    22,
    23,
    24,
    25,
    26,
    27,
    28,
    29,
    30,
    31,
    32,
    33,
    34,
    35,
    36,
    37,
    38,
    39,
    40,
    41,
    42,
    43,
    44,
    45,
    46,
    47,
    48,
    49,
    50,
    51,
    52,
    53,
    54,
    55,
    56,
    57,
    58,
    59,
    60,
    61,
    62,
    63,
    64,
    65,
    66,
    67,
    68,
    69,
    70,
    71,
    72,
    73,
    74,
    75,
    76,
    77,
    78,
    79,
    80,
    81,
    82,
    83,
    84,
    85,
    86,
    87,
    88,
    89,
    90,
    91,
    92,
    93,
    94,
    95,
    96,
    97,
    98,
    99,
    100,
    101,
    102,
    103,
    104,
    105,
    106,
    107,
    108,
    109,
    110,
    111,
    112,
    113,
    114,
    115,
    116,
    117,
    118,
    119,
    120,
    121,
    122,
    123,
    124,
    125,
    126,
    127,
    128,
    129,
    130,
    131,
    132,
    133,
    134,
    135,
    136,
    137,
    138,
    139,
    140,
    141,
    142,
    143,
    144,
    145,
    146,
    147,
    148,
    149,
    150,
    151,
    152,
    153,
    154,
    155,
    156,
    157,
    158,
    159,
    160,
    161,
    162,
    163,
    164,
    165,
    166,
    167,
    168,
    169,
    170,
    171,
    172,
    173,
    174,
    175,
    176,
    177,
    178,
    179,
    180,
    181,
    182,
    183,
    184,
    185,
    186,
    187,
    188,
    189,
    190,
    191,
    192,
    193,
    194,
    195,
    196,
    197,
    198,
    199,
    200,
    201,
    202,
    203,
    204,
    205,
    206,
    207,
    208,
    209,
    210,
    211,
    212,
    213,
    214,
    215,
    216,
    217,
    218,
    219,
    220,
    221,
    222,
    223,
    224,
    225,
    226,
    227,
    228,
    229,
    230,
    231,
    232,
    233,
    234,
    235,
    236,
    237,
    238,
    239,
    240,
    241,
    242,
    243,
    244,
    245,
    246,
    247,
    248,
    249,
    250,
    251,
    252,
    253,
    254,
    255,
    256
   ],
   "AcquisitionTime": [
    "113917.450000",
    "113919.450000",
    "113921.450000",
    "113923.450000",
    "113925.450000",
    "113927.450000",
    "113929.450000",
    "113931.450000",
    "113933.450000",
    "113935.450000",
    "113937.450000",
    "113939.450000",
    "113941.450000",
    "113943.450000",
    "113945.450000",
    "113947.450000",
    "113949.450000",
    "113951.450000",
    "113953.450000",
    "113955.450000",
    "113957.450000",
    "113959.450000",
    "114001.450000",
    "114003.450000",
    "114005.450000",
    "114007.450000",
    "114009.450000",
    "114011.450000",
    "114013.450000",
    "114015.450000",
    "114017.450000",
    "114019.450000",
    "114021.450000",
    "114023.450000",
    "114025.450000",
    "114027.450000",
    "114029.450000",
    "114031.450000",
    "114033.450000",
    "114035.450000",
    "114037.450000",
    "114039.450000",
    "114041.450000",
    "114043.450000",
    "114045.450000",
    "114047.450000",
    "114049.450000",
    "114051.450000",
    "114053.450000",
    "114055.450000",
    "114057.450000",
    "114059.450000",
    "114101.450000",
    "114103.450000",
    "114105.450000",
    "114107.450000",
    "114109.450000",
    "114111.450000",
    "114113.450000",
    "114115.450000",
    "114117.450000",
    "114119.450000",
    "114121.450000",
    "114123.450000",
    "114125.450000",
    "114127.450000",
    "114129.450000",
    "114131.450000",
    "114133.450000",
    "114135.450000",
    "114137.450000",
    "114139.450000",
    "114141.450000",
    "114143.450000",
    "114145.450000",
    "114147.450000",
    "114149.450000",
    "114151.450000",
    "114153.450000",
    "114155.450000",
    "114157.450000",
    "114159.450000",
    "114201.450000",
    "114203.450000",
    "114205.450000",
    "114207.450000",
    "114209.450000",
    "114211.450000",
    "114213.450000",
    "114215.450000",
    "114217.450000",
    "114219.450000",
    "114221.450000",
    "114223.450000",
    "114225.450000",
    "114227.450000",
    "114229.450000",
    "114231.450000",
    "114233.450000",
    "114235.450000",
    "114237.450000",
    "114239.450000",
    "114241.450000",
    "114243.450000",
    "114245.450000",
    "114247.450000",
    "114249.450000",
    "114251.450000",
    "114253.450000",
    "114255.450000",
    "114257.450000",
    "114259.450000",
    "114301.450000",
    "114303.450000",
    "114305.450000",
    "114307.450000",
    "114309.450000",
    "114311.450000",
    "114313.450000",
    "114315.450000",
    "114317.450000",
    "114319.450000",
    "114321.450000",
    "114323.450000",
    "114325.450000",
    "114327.450000",
    "114329.450000",
    "114331.450000",
    "114333.450000",
    "114335.450000",
    "114337.450000",
    "114339.450000",
    "114341.450000",
    "114343.450000",
    "114345.450000",
    "114347.450000",
    "114349.450000",
    "114351.450000",
    "114353.450000",
    "114355.450000",
    "114357.450000",
    "114359.450000",
    "114401.450000",
    "114403.450000",
    "114405.450000",
    "114407.450000",
    "114409.450000",
    "114411.450000",
    "114413.450000",
    "114415.450000",
    "114417.450000",
    "114419.450000",
    "114421.450000",
    "114423.450000",
    "114425.450000",
    "114427.450000",
    "114429.450000",
    "114431.450000",
    "114433.450000",
    "114435.450000",
    "114437.450000",
    "114439.450000",
    "114441.450000",
    "114443.450000",
    "114445.450000",
    "114447.450000",
    "114449.450000",
    "114451.450000",
    "114453.450000",
    "114455.450000",
    "114457.450000",
    "114459.450000",
    "114501.450000",
    "114503.450000",
    "114505.450000",
    "114507.450000",
    "114509.450000",
    "114511.450000",
    "114513.450000",
    "114515.450000",
    "114517.450000",
    "114519.450000",
    "114521.450000",
    "114523.450000",
    "114525.450000",
    "114527.450000",
    "114529.450000",
    "114531.450000",
    "114533.450000",
    "114535.450000",
    "114537.450000",
    "114539.450000",
    "114541.450000",
    "114543.450000",
    "114545.450000",
    "114547.450000",
    "114549.450000",
    "114551.450000",
    "114553.450000",
    "114555.450000",
    "114557.450000",
    "114559.450000",
    "114601.450000",
    "114603.450000",
    "114605.450000",
    "114607.450000",
    "114609.450000",
    "114611.450000",
    "114613.450000",
    "114615.450000",
    "114617.450000",
    "114619.450000",
    "114621.450000",
    "114623.450000",
    "114625.450000",
    "114627.450000",
    "114629.450000",
    "114631.450000",
    "114633.450000",
    "114635.450000",
    "114637.450000",
    "114639.450000",
    "114641.450000",
    "114643.450000",
    "114645.450000",
    "114647.450000",
    "114649.450000",
    "114651.450000",
    "114653.450000",
    "114655.450000",
    "114657.450000",
    "114659.450000",
    "114701.450000",
    "114703.450000",
    "114705.450000",
    "114707.450000",
    "114709.450000",
    "114711.450000",
    "114713.450000",
    "114715.450000",
    "114717.450000",
    "114719.450000",
    "114721.450000",
    "114723.450000",
    "114725.450000",
    "114727.450000",
    "114729.450000",
    "114731.450000",
    "114733.450000",
    "114735.450000",
    "114737.450000",
    "114739.450000",
    "114741.450000",
    "114743.450000",
    "114745.450000",
    "114747.450000"
   ],
   "ContentTime": [
    "113920.571000",
    "113921.566000",
    "113923.566000",
    "113925.566000",
    "113927.567000",
    "113929.567000",
    "113931.567000",
    "113933.567000",
    "113935.566000",
    "113937.567000",
    "113939.566000",
    "113941.566000",
    "113943.568000",
    "113945.568000",
    "113947.568000",
    "113949.567000",
    "113951.567000",
    "113953.566000",
    "113955.566000",
    "113958.066000",
    "113959.566000",
    "114001.567000",
    "114003.568000",
    "114006.067000",
    "114007.567000",
    "114009.566000",
    "114011.566000",
    "114013.567000",
    "114015.566000",
    "114017.567000",
    "114019.567000",
    "114021.568000",
    "114023.567000",
    "114025.567000",
    "114027.567000",
    "114029.566000",
    "114031.566000",
    "114033.567000",
    "114035.567000",
    "114038.068000",
    "114039.567000",
    "114041.567000",
    "114043.568000",
    "114045.567000",
    "114047.566000",
    "114049.566000",
    "114051.566000",
    "114053.568000",
    "114055.567000",
    "114057.568000",
    "114059.567000",
    "114101.568000",
    "114103.567000",
    "114105.566000",
    "114107.566000",
    "114110.067000",
    "114111.567000",
    "114113.568000",
    "114115.568000",
    "114117.567000",
    "114119.567000",
    "114121.566000",
    "114123.566000",
    "114125.566000",
    "114128.066000",
    "114129.568000",
    "114131.568000",
    "114134.068000",
    "114136.068000",
    "114137.567000",
    "114139.567000",
    "114141.566000",
    "114144.066000",
    "114145.567000",
    "114147.568000",
    "114150.067000",
    "114151.567000",
    "114153.568000",
    "114155.566000",
    "114157.567000",
    "114200.066000",
    "114201.566000",
    "114203.567000",
    "114205.567000",
    "114207.567000",
    "114209.568000",
    "114212.067000",
    "114213.567000",
    "114215.567000",
    "114217.567000",
    "114219.566000",
    "114221.567000",
    "114224.068000",
    "114226.068000",
    "114227.567000",
    "114229.566000",
    "114231.567000",
    "114233.566000",
    "114236.067000",
    "114237.566000",
    "114239.567000",
    "114241.568000",
    "114243.568000",
    "114246.068000",
    "114247.567000",
    "114249.566000",
    "114251.566000",
    "114254.066000",
    "114256.068000",
    "114257.567000",
    "114259.567000",
    "114301.568000",
    "114304.067000",
    "114305.567000",
    "114307.566000",
    "114309.567000",
    "114312.067000",
    "114313.568000",
    "114316.068000",
    "114318.067000",
    "114319.567000",
    "114321.568000",
    "114323.567000",
    "114325.567000",
    "114327.567000",
    "114330.066000",
    "114331.567000",
    "114334.068000",
    "114336.067000",
    "114337.567000",
    "114339.567000",
    "114342.067000",
    "114343.566000",
    "114345.566000",
    "114347.566000",
    "114349.568000",
    "114352.068000",
    "114353.567000",
    "114356.067000",
    "114358.067000",
    "114400.066000",
    "114401.567000",
    "114403.566000",
    "114405.568000",
    "114407.567000",
    "114410.068000",
    "114411.567000",
    "114413.567000",
    "114415.566000",
    "114417.567000",
    "114420.066000",
    "114421.566000",
    "114423.568000",
    "114425.568000",
    "114428.081000",
    "114429.567000",
    "114431.568000",
    "114433.567000",
    "114435.566000",
    "114437.566000",
    "114439.566000",
    "114442.067000",
    "114443.568000",
    "114446.068000",
    "114447.567000",
    "114450.067000",
    "114452.066000",
    "114453.567000",
    "114455.566000",
    "114458.068000",
    "114459.567000",
    "114502.068000",
    "114503.567000",
    "114505.567000",
    "114507.567000",
    "114509.567000",
    "114511.567000",
    "114514.067000",
    "114516.068000",
    "114517.567000",
    "114519.568000",
    "114521.567000",
    "114524.067000",
    "114525.567000",
    "114527.566000",
    "114529.566000",
    "114532.067000",
    "114533.568000",
    "114535.567000",
    "114537.568000",
    "114539.567000",
    "114541.567000",
    "114543.566000",
    "114545.567000",
    "114548.067000",
    "114549.567000",
    "114551.568000",
    "114553.567000",
    "114555.567000",
    "114557.567000",
    "114559.566000",
    "114601.566000",
    "114603.567000",
    "114605.566000",
    "114607.567000",
    "114609.567000",
    "114611.567000",
    "114614.067000",
    "114615.567000",
    "114617.566000",
    "114619.567000",
    "114621.567000",
    "114623.567000",
    "114625.568000",
    "114628.068000",
    "114629.567000",
    "114631.568000",
    "114634.068000",
    "114635.567000",
    "114637.567000",
    "114640.067000",
    "114641.566000",
    "114643.567000",
    "114645.568000",
    "114647.568000",
    "114649.567000",
    "114652.067000",
    "114653.566000",
    "114655.567000",
    "114657.566000",
    "114659.566000",
    "114701.568000",
    "114704.067000",
    "114705.568000",
    "114708.067000",
    "114709.567000",
    "114711.566000",
    "114714.067000",
    "114715.566000",
    "114717.567000",
    "114720.067000",
    "114721.568000",
    "114724.068000",
    "114725.568000",
    "114727.566000",
    "114729.566000",
    "114732.067000",
    "114734.066000",
    "114736.068000",
    "114737.567000",
    "114740.068000",
    "114742.068000",
    "114744.067000",
    "114745.567000",
    "114747.567000",
    "114749.528000"
   ],
   "InstanceCreationTime": [
    "113920.571000",
    "113921.566000",
    "113923.566000",
    "113925.566000",
    "113927.567000",
    "113929.567000",
    "113931.567000",
    "113933.567000",
    "113935.566000",
    "113937.567000",
    "113939.566000",
    "113941.566000",
    "113943.568000",
    "113945.568000",
    "113947.568000",
    "113949.567000",
    "113951.567000",
    "113953.566000",
    "113955.566000",
    "113958.066000",
    "113959.566000",
    "114001.567000",
    "114003.568000",
    "114006.067000",
    "114007.567000",
    "114009.566000",
    "114011.566000",
    "114013.567000",
    "114015.566000",
    "114017.567000",
    "114019.567000",
    "114021.568000",
    "114023.567000",
    "114025.567000",
    "114027.567000",
    "114029.566000",
    "114031.566000",
    "114033.567000",
    "114035.567000",
    "114038.068000",
    "114039.567000",
    "114041.567000",
    "114043.568000",
    "114045.567000",
    "114047.566000",
    "114049.566000",
    "114051.566000",
    "114053.568000",
    "114055.567000",
    "114057.568000",
    "114059.567000",
    "114101.568000",
    "114103.567000",
    "114105.566000",
    "114107.566000",
    "114110.067000",
    "114111.567000",
    "114113.568000",
    "114115.568000",
    "114117.567000",
    "114119.567000",
    "114121.566000",
    "114123.566000",
    "114125.566000",
    "114128.066000",
    "114129.568000",
    "114131.568000",
    "114134.068000",
    "114136.068000",
    "114137.567000",
    "114139.567000",
    "114141.566000",
    "114144.066000",
    "114145.567000",
    "114147.568000",
    "114150.067000",
    "114151.567000",
    "114153.568000",
    "114155.566000",
    "114157.567000",
    "114200.066000",
    "114201.566000",
    "114203.567000",
    "114205.567000",
    "114207.567000",
    "114209.568000",
    "114212.067000",
    "114213.567000",
    "114215.567000",
    "114217.567000",
    "114219.566000",
    "114221.567000",
    "114224.068000",
    "114226.068000",
    "114227.567000",
    "114229.566000",
    "114231.567000",
    "114233.566000",
    "114236.067000",
    "114237.566000",
    "114239.567000",
    "114241.568000",
    "114243.568000",
    "114246.068000",
    "114247.567000",
    "114249.566000",
    "114251.566000",
    "114254.066000",
    "114256.068000",
    "114257.567000",
    "114259.567000",
    "114301.568000",
    "114304.067000",
    "114305.567000",
    "114307.566000",
    "114309.567000",
    "114312.067000",
    "114313.568000",
    "114316.068000",
    "114318.067000",
    "114319.567000",
    "114321.568000",
    "114323.567000",
    "114325.567000",
    "114327.567000",
    "114330.066000",
    "114331.567000",
    "114334.068000",
    "114336.067000",
    "114337.567000",
    "114339.567000",
    "114342.067000",
    "114343.566000",
    "114345.566000",
    "114347.566000",
    "114349.568000",
    "114352.068000",
    "114353.567000",
    "114356.067000",
    "114358.067000",
    "114400.066000",
    "114401.567000",
    "114403.566000",
    "114405.568000",
    "114407.567000",
    "114410.068000",
    "114411.567000",
    "114413.567000",
    "114415.566000",
    "114417.567000",
    "114420.066000",
    "114421.566000",
    "114423.568000",
    "114425.568000",
    "114428.081000",
    "114429.567000",
    "114431.568000",
    "114433.567000",
    "114435.566000",
    "114437.566000",
    "114439.566000",
    "114442.067000",
    "114443.568000",
    "114446.068000",
    "114447.567000",
    "114450.067000",
    "114452.066000",
    "114453.567000",
    "114455.566000",
    "114458.068000",
    "114459.567000",
    "114502.068000",
    "114503.567000",
    "114505.567000",
    "114507.567000",
    "114509.567000",
    "114511.567000",
    "114514.067000",
    "114516.068000",
    "114517.567000",
    "114519.568000",
    "114521.567000",
    "114524.067000",
    "114525.567000",
    "114527.566000",
    "114529.566000",
    "114532.067000",
    "114533.568000",
    "114535.567000",
    "114537.568000",
    "114539.567000",
    "114541.567000",
    "114543.566000",
    "114545.567000",
    "114548.067000",
    "114549.567000",
    "114551.568000",
    "114553.567000",
    "114555.567000",
    "114557.567000",
    "114559.566000",
    "114601.566000",
    "114603.567000",
    "114605.566000",
    "114607.567000",
    "114609.567000",
    "114611.567000",
    "114614.067000",
    "114615.567000",
    "114617.566000",
    "114619.567000",
    "114621.567000",
    "114623.567000",
    "114625.568000",
    "114628.068000",
    "114629.567000",
    "114631.568000",
    "114634.068000",
    "114635.567000",
    "114637.567000",
    "114640.067000",
    "114641.566000",
    "114643.567000",
    "114645.568000",
    "114647.568000",
    "114649.567000",
    "114652.067000",
    "114653.566000",
    "114655.567000",
    "114657.566000",
    "114659.566000",
    "114701.568000",
    "114704.067000",
    "114705.568000",
    "114708.067000",
    "114709.567000",
    "114711.566000",
    "114714.067000",
    "114715.566000",
    "114717.567000",
    "114720.067000",
    "114721.568000",
    "114724.068000",
    "114725.568000",
    "114727.566000",
    "114729.566000",
    "114732.067000",
    "114734.066000",
    "114736.068000",
    "114737.567000",
    "114740.068000",
    "114742.068000",
    "114744.067000",
    "114745.567000",
    "114747.567000",
    "114749.528000"
   ],
   "InstanceNumber": [
    1,
    2,
    3,
    4,
    5,
    6,
    7,
    8,
    9,
    10,
    11,
    12,
    13,
    14,
    15,
    16,
    17,
    18,
    19,
    20,
    21,
    22,
    23,
    24,
    25,
    26,
    27,
    28,
    29,
    30,
    31,
    32,
    33,
    34,
    35,
    36,
    37,
    38,
    39,
    40,
    41,
    42,
    43,
    44,
    45,
    46,
    47,
    48,
    49,
    50,
    51,
    52,
    53,
    54,
    55,
    56,
    57,
    58,
    59,
    60,
    61,
    62,
    63,
    64,
    65,
    66,
    67,
    68,
    69,
    70,
    71,
    72,
    73,
    74,
    75,
    76,
    77,
    78,
    79,
    80,
    81,
    82,
    83,
    84,
    85,
    86,
    87,
    88,
    89,
    90,
    91,
    92,
    93,
    94,
    95,
    96,
    97,
    98,
    99,
    100,
    101,
    102,
    103,
    104,
    105,
    106,
    107,
    108,
    109,
    110,
    111,
    112,
    113,
    114,
    115,
    116,
    117,
    118,
    119,
    120,
    121,
    122,
    123,
    124,
    125,
    126,
    127,
    128,
    129,
    130,
    131,
    132,
    133,
    134,
    135,
    136,
    137,
    138,
    139,
    140,
    141,
    142,
    143,
    144,
    145,
    146,
    147,
    148,
    149,
    150,
    151,
    152,
    153,
    154,
    155,
    156,
    157,
    158,
    159,
    160,
    161,
    162,
    163,
    164,
    165,
    166,
    167,
    168,
    169,
    170,
    171,
    172,
    173,
    174,
    175,
    176,
    177,
    178,
    179,
    180,
    181,
    182,
    183,
    184,
    185,
    186,
    187,
    188,
    189,
    190,
    191,
    192,
    193,
    194,
    195,
    196,
    197,
    198,
    199,
    200,
    201,
    202,
    203,
    204,
    205,
    206,
    207,
    208,
    209,
    210,
    211,
    212,
    213,
    214,
    215,
    216,
    217,
    218,
    219,
    220,
    221,
    222,
    223,
    224,
    225,
    226,
    227,
    228,
    229,
    230,
    231,
    232,
    233,
    234,
    235,
    236,
    237,
    238,
    239,
    240,
    241,
    242,
    243,
    244,
    245,
    246,
    247,
    248,
    249,
    250,
    251,
    252,
    253,
    254,
    255,
    256
   ],
   "LargestImagePixelValue": [
    2938,
    2863,
    2849,
    2838,
    2847,
    2835,
    2819,
    2806,
    2837,
    2842,
    2843,
    2839,
    2821,
    2838,
    2839,
    2836,
    2814,
    2841,
    2790,
    2827,
    2840,
    2856,
    2833,
    2847,
    2841,
    2879,
    2825,
    2836,
    2825,
    2842,
    2831,
    2840,
    2830,
    2877,
    2857,
    2882,
    2843,
    2828,
    2852,
    2854,
    2863,
    2870,
    2869,
    2838,
    2838,
    2839,
    2863,
    2847,
    2878,
    2824,
    2823,
    2807,
    2787,
    2799,
    2823,
    2854,
    2844,
    2822,
    2837,
    2839,
    2827,
    2829,
    2851,
    2850,
    2873,
    2834,
    2819,
    2828,
    2845,
    2847,
    2856,
    2857,
    2847,
    2829,
    2816,
    2821,
    2859,
    2832,
    2847,
    2850,
    2828,
    2864,
    2815,
    2821,
    2838,
    2826,
    2850,
    2846,
    2846,
    2856,
    2864,
    2851,
    2822,
    2848,
    2851,
    2835,
    2818,
    2818,
    2824,
    2817,
    2799,
    2838,
    2847,
    2830,
    2857,
    2852,
    2824,
    2824,
    2831,
    2822,
    2811,
    2801,
    2837,
    2814,
    2805,
    2830,
    2859,
    2779,
    2836,
    2846,
    2834,
    2837,
    2800,
    2802,
    2824,
    2797,
    2849,
    2844,
    2829,
    2849,
    2794,
    2817,
    2825,
    2802,
    2805,
    2798,
    2832,
    2831,
    2808,
    2851,
    2804,
    2786,
    2813,
    2818,
    2790,
    2823,
    2819,
    2799,
    2834,
    2810,
    2837,
    2802,
    2817,
    2800,
    2823,
    2783,
    2798,
    2796,
    2812,
    2803,
    2803,
    2828,
    2818,
    2805,
    2806,
    2855,
    2821,
    2791,
    2820,
    2802,
    2815,
    2833,
    2839,
    2869,
    2850,
    2842,
    2833,
    2804,
    2819,
    2816,
    2826,
    2855,
    2858,
    2889,
    2845,
    2834,
    2845,
    2848,
    2828,
    2876,
    2888,
    2838,
    2872,
    2854,
    2849,
    2876,
    2823,
    2864,
    2833,
    2838,
    2881,
    2871,
    2820,
    2860,
    2839,
    2890,
    2830,
    2843,
    2809,
    2861,
    2857,
    2857,
    2915,
    2900,
    2869,
    2888,
    2890,
    2882,
    2936,
    2881,
    2886,
    2912,
    2892,
    2920,
    2890,
    2938,
    2919,
    2881,
    2923,
    2951,
    2900,
    2905,
    2897,
    2918,
    2902,
    2949,
    2904,
    2926,
    2909,
    2920,
    2897,
    2931,
    2904,
    2923,
    2953,
    2941,
    2902,
    2886,
    2925,
    2957,
    2934,
    2945,
    2961,
    2975,
    2997,
    2969
   ],
   "WindowCenter": [
    776.0,
    774.0,
    773.0,
    773.0,
    773.0,
    773.0,
    773.0,
    772.0,
    773.0,
    774.0,
    774.0,
    774.0,
    774.0,
    774.0,
    773.0,
    773.0,
    773.0,
    773.0,
    773.0,
    773.0,
    772.0,
    772.0,
    773.0,
    772.0,
    773.0,
    772.0,
    771.0,
    772.0,
    772.0,
    772.0,
    771.0,
    770.0,
    771.0,
    772.0,
    773.0,
    772.0,
    771.0,
    771.0,
    771.0,
    771.0,
    771.0,
    771.0,
    771.0,
    772.0,
    772.0,
    772.0,
    772.0,
    772.0,
    772.0,
    771.0,
    771.0,
    770.0,
    769.0,
    769.0,
    769.0,
    771.0,
    771.0,
    771.0,
    771.0,
    770.0,
    771.0,
    771.0,
    771.0,
    772.0,
    773.0,
    772.0,
    771.0,
    771.0,
    771.0,
    772.0,
    773.0,
    773.0,
    772.0,
    771.0,
    770.0,
    771.0,
    771.0,
    771.0,
    771.0,
    770.0,
    769.0,
    771.0,
    772.0,
    772.0,
    771.0,
    770.0,
    770.0,
    770.0,
    771.0,
    771.0,
    771.0,
    771.0,
    770.0,
    771.0,
    773.0,
    773.0,
    773.0,
    771.0,
    771.0,
    771.0,
    772.0,
    773.0,
    773.0,
    772.0,
    772.0,
    773.0,
    773.0,
    773.0,
    773.0,
    772.0,
    772.0,
    771.0,
    772.0,
    772.0,
    772.0,
    771.0,
    770.0,
    770.0,
    772.0,
    773.0,
    774.0,
    773.0,
    772.0,
    771.0,
    771.0,
