{
  "AcquisitionMatrixPE": 100,
  "AcquisitionNumber": 1,
  "AcquisitionTime": "15:00:19.927500",
  "BandwidthPerPixelPhaseEncode": 18.519,
  "BaseResolution": 100,
  "BodyPartExamined": "BRAIN",
  "ConsistencyInfo": "N4_VE11C_LATEST_20160120",
  "ConversionSoftware": "dcm2niix",
  "ConversionSoftwareVersion": "v1.0.20180622 GCC4.9.2",
  "DerivedVendorReportedEchoSpacing": 0.000539986,
  "DeviceSerialNumber": "166078",
  "DwellTime": 2.1e-06,
  "EchoTime": 0.034,
  "EchoTrainLength": 100,
  "EffectiveEchoSpacing": 0.000539986,
  "FlipAngle": 90,
  "ImageOrientationPatientDICOM": [1, 0, 0, 0, 0.966823, -0.255446],
  "ImageType": [
    "ORIGINAL",
    "PRIMARY",
    "M",
    "ND",
    "MOSAIC"
],
  "InPlanePhaseEncodingDirectionDICOM": "COL",
  "InstitutionAddress": "Street_StreetNo_Bei_Jing_District_CN_ZIP",
  "InstitutionName": "BeiJing_Normal_University",
  "InstitutionalDepartmentName": "Department",
  "MRAcquisitionType": "2D",
  "MagneticFieldStrength": 3,
  "Manufacturer": "Siemens",
  "ManufacturersModelName": "Prisma",
  "Modality": "MR",
  "MultibandAccelerationFactor": 3,
  "PartialFourier": 1,
  "PatientPosition": "HFS",
  "PercentPhaseFOV": 100,
  "PhaseEncodingDirection": "j-",
  "PhaseEncodingSteps": 100,
  "PhaseResolution": 1,
  "PixelBandwidth": 2380,
  "ProcedureStepDescription": "BNU_P2018_64CH_Zhen.ZongLei",
  "ProtocolName": "bold_100x100_s3_2x2x2_static_256",
  "PulseSequenceDetails": "%SiemensSeq%_ep2d_bold",
  "ReceiveCoilActiveElements": "HC1-7;NC1",
  "ReceiveCoilName": "HeadNeck_64",
  "ReconMatrixPE": 100,
  "RepetitionTime": 2,
  "SAR": 0.0860847,
  "ScanOptions": "FS",
  "ScanningSequence": "EP",
  "SequenceName": "_epfid2d1_100",
  "SequenceVariant": "SK",
  "SeriesDescription": "bold_100x100_s3_2x2x2_static_256",
  "SeriesNumber": 3,
  "ShimSetting": [-5471, -11503, -1236, 217, -150, -424, -93, 13],
  "SliceThickness": 2,
  "SliceTiming": [1.485, 0, 0.99, 0.0825, 1.0725, 0.165, 1.155, 0.2475, 1.2375, 0.33, 1.32, 0.4125, 1.4025, 0.5775, 1.5675, 0.66, 1.65, 0.7425, 1.7325, 0.825, 1.815, 0.9075, 1.8975, 0.495, 1.485, 0, 0.99, 0.0825, 1.0725, 0.165, 1.155, 0.2475, 1.2375, 0.33, 1.32, 0.4125, 1.4025, 0.5775, 1.5675, 0.66, 1.65, 0.7425, 1.7325, 0.825, 1.815, 0.9075, 1.8975, 0.495, 1.485, 0, 0.99, 0.0825, 1.0725, 0.165, 1.155, 0.2475, 1.2375, 0.33, 1.32, 0.4125, 1.4025, 0.5775, 1.5675, 0.66, 1.65, 0.7425, 1.7325, 0.825, 1.815, 0.9075, 1.8975, 0.495],
  "SoftwareVersions": "syngo_MR_E11",
  "SpacingBetweenSlices": 2,
  "StationName": "AWP166078",
  "TaskName": "naturalvision",
  "TotalReadoutTime": 0.0534586,
  "TxRefAmp": 247.435,
  "dcmmeta_affine": [
    [-2.0, 0.0, 0.0, 102.03389739990234],
    [0.0, 1.93364679813385, -0.5108914971351624, -74.67015838623047],
    [0.0, 0.5108914971351624, 1.9336466789245605, -95.6539306640625],
    [0.0, 0.0, 0.0, 1.0]
],
  "dcmmeta_reorient_transform": [
    [0.0, -1.0, 0.0, 99.0],
    [1.0, 0.0, 0.0, 0.0],
    [0.0, 0.0, 1.0, 0.0],
    [0.0, 0.0, 0.0, 1.0]
],
  "dcmmeta_shape": [100, 100, 72, 256],
  "dcmmeta_slice_dim": 2,
  "dcmmeta_version": 0.6,
  "global": {
    "const": {
      "AcquisitionMatrix": [100, 0, 0, 100],
      "AngioFlag": "N",
      "BitsAllocated": 16,
      "BitsStored": 12,
      "BodyPartExamined": "BRAIN",
      "Columns": 900,
      "EchoNumbers": 1,
      "EchoTime": 34.0,
      "EchoTrainLength": 100,
      "FlipAngle": 90.0,
      "HighBit": 11,
      "ImageOrientationPatient": [1.0, 0.0, 0.0, 0.0, 0.96682339000573, -0.2554457526322],
      "ImagePositionPatient": [-902.03389835358, -890.21958799246, 159.28093048175],
      "ImageType": [
        "ORIGINAL",
        "PRIMARY",
        "M",
        "ND",
        "MOSAIC"
],
      "ImagedNucleus": "1H",
      "ImagingFrequency": 123.257718,
      "InPlanePhaseEncodingDirection": "COL",
      "MRAcquisitionType": "2D",
      "MagneticFieldStrength": 3.0,
      "Manufacturer": "SIEMENS",
      "ManufacturerModelName": "Prisma",
      "Modality": "MR",
      "NumberOfAverages": 1.0,
      "NumberOfPhaseEncodingSteps": 100,
      "PercentPhaseFieldOfView": 100.0,
      "PercentSampling": 100.0,
      "PerformedProcedureStepStartTime": "145716.168000",
      "PhotometricInterpretation": "MONOCHROME2",
      "PixelBandwidth": 2380.0,
      "PixelRepresentation": 0,
      "PixelSpacing": [2.0, 2.0],
      "ProtocolName": "bold_100x100_s3_2x2x2_static_256",
      "RepetitionTime": 2000.0,
      "Rows": 900,
      "SAR": 0.08608472486551,
      "SamplesPerPixel": 1,
      "ScanOptions": "FS",
      "ScanningSequence": "EP",
      "SequenceName": "*epfid2d1_100",
      "SequenceVariant": "SK",
      "SeriesDescription": "bold_100x100_s3_2x2x2_static_256",
      "SeriesNumber": 3,
      "SeriesTime": "150022.574000",
      "SliceLocation": -73.406283491006,
      "SliceThickness": 2.0,
      "SmallestImagePixelValue": 0,
      "SoftwareVersions": "syngo MR E11",
      "SpacingBetweenSlices": 1.9999999458571,
      "SpecificCharacterSet": "ISO_IR 100",
      "StudyID": "1",
      "StudyTime": "145716.108000",
      "TransmitCoilName": "Body",
      "VariableFlipAngleFlag": "N",
      "WindowCenterWidthExplanation": "Algo1",
      "dBdt": 0.0},
    "slices": {}
  },
  "time": {
    "samples": {
      "AcquisitionNumber": [1, 2, 3, 4, 5, 6, 7, 8, 9, 10, 11, 12, 13, 14, 15, 16, 17, 18, 19, 20, 21, 22, 23, 24, 25, 26, 27, 28, 29, 30, 31, 32, 33, 34, 35, 36, 37, 38, 39, 40, 41, 42, 43, 44, 45, 46, 47, 48, 49, 50, 51, 52, 53, 54, 55, 56, 57, 58, 59, 60, 61, 62, 63, 64, 65, 66, 67, 68, 69, 70, 71, 72, 73, 74, 75, 76, 77, 78, 79, 80, 81, 82, 83, 84, 85, 86, 87, 88, 89, 90, 91, 92, 93, 94, 95, 96, 97, 98, 99, 100, 101, 102, 103, 104, 105, 106, 107, 108, 109, 110, 111, 112, 113, 114, 115, 116, 117, 118, 119, 120, 121, 122, 123, 124, 125, 126, 127, 128, 129, 130, 131, 132, 133, 134, 135, 136, 137, 138, 139, 140, 141, 142, 143, 144, 145, 146, 147, 148, 149, 150, 151, 152, 153, 154, 155, 156, 157, 158, 159, 160, 161, 162, 163, 164, 165, 166, 167, 168, 169, 170, 171, 172, 173, 174, 175, 176, 177, 178, 179, 180, 181, 182, 183, 184, 185, 186, 187, 188, 189, 190, 191, 192, 193, 194, 195, 196, 197, 198, 199, 200, 201, 202, 203, 204, 205, 206, 207, 208, 209, 210, 211, 212, 213, 214, 215, 216, 217, 218, 219, 220, 221, 222, 223, 224, 225, 226, 227, 228, 229, 230, 231, 232, 233, 234, 235, 236, 237, 238, 239, 240, 241, 242, 243, 244, 245, 246, 247, 248, 249, 250, 251, 252, 253, 254, 255, 256],
      "AcquisitionTime": ["150019.927500", "150021.927500", "150023.927500", "150025.927500", "150027.927500", "150029.927500", "150031.927500", "150033.927500", "150035.927500", "150037.927500", "150039.927500", "150041.927500", "150043.927500", "150045.927500", "150047.927500", "150049.927500", "150051.927500", "150053.927500", "150055.927500", "150057.927500", "150059.927500", "150101.927500", "150103.927500", "150105.927500", "150107.927500", "150109.927500", "150111.927500", "150113.927500", "150115.927500", "150117.927500", "150119.927500", "150121.927500", "150123.927500", "150125.927500", "150127.927500", "150129.927500", "150131.927500", "150133.927500", "150135.927500", "150137.927500", "150139.927500", "150141.927500", "150143.927500", "150145.927500", "150147.927500", "150149.927500", "150151.927500", "150153.927500", "150155.927500", "150157.927500", "150159.927500", "150201.927500", "150203.927500", "150205.927500", "150207.927500", "150209.927500", "150211.927500", "150213.927500", "150215.927500", "150217.927500", "150219.927500", "150221.927500", "150223.927500", "150225.927500", "150227.927500", "150229.927500", "150231.927500", "150233.927500", "150235.927500", "150237.927500", "150239.927500", "150241.927500", "150243.927500", "150245.927500", "150247.927500", "150249.927500", "150251.927500", "150253.927500", "150255.927500", "150257.927500", "150259.927500", "150301.927500", "150303.927500", "150305.927500", "150307.927500", "150309.927500", "150311.927500", "150313.927500", "150315.927500", "150317.927500", "150319.927500", "150321.927500", "150323.927500", "150325.927500", "150327.927500", "150329.927500", "150331.927500", "150333.927500", "150335.927500", "150337.927500", "150339.927500", "150341.927500", "150343.927500", "150345.927500", "150347.927500", "150349.927500", "150351.927500", "150353.927500", "150355.927500", "150357.927500", "150359.927500", "150401.927500", "150403.927500", "150405.927500", "150407.927500", "150409.927500", "150411.927500", "150413.927500", "150415.927500", "150417.927500", "150419.927500", "150421.927500", "150423.927500", "150425.927500", "150427.927500", "150429.927500", "150431.927500", "150433.927500", "150435.927500", "150437.927500", "150439.927500", "150441.927500", "150443.927500", "150445.927500", "150447.927500", "150449.927500", "150451.927500", "150453.927500", "150455.927500", "150457.927500", "150459.927500", "150501.927500", "150503.927500", "150505.927500", "150507.927500", "150509.927500", "150511.927500", "150513.927500", "150515.927500", "150517.927500", "150519.927500", "150521.927500", "150523.927500", "150525.927500", "150527.927500", "150529.927500", "150531.927500", "150533.927500", "150535.927500", "150537.927500", "150539.927500", "150541.927500", "150543.927500", "150545.927500", "150547.927500", "150549.927500", "150551.927500", "150553.927500", "150555.927500", "150557.927500", "150559.927500", "150601.927500", "150603.927500", "150605.927500", "150607.927500", "150609.927500", "150611.927500", "150613.927500", "150615.927500", "150617.927500", "150619.927500", "150621.927500", "150623.927500", "150625.927500", "150627.927500", "150629.927500", "150631.927500", "150633.927500", "150635.927500", "150637.927500", "150639.927500", "150641.927500", "150643.927500", "150645.927500", "150647.927500", "150649.927500", "150651.927500", "150653.927500", "150655.927500", "150657.927500", "150659.927500", "150701.927500", "150703.927500", "150705.927500", "150707.927500", "150709.927500", "150711.927500", "150713.927500", "150715.927500", "150717.927500", "150719.927500", "150721.927500", "150723.927500", "150725.927500", "150727.927500", "150729.927500", "150731.927500", "150733.927500", "150735.927500", "150737.927500", "150739.927500", "150741.927500", "150743.927500", "150745.927500", "150747.927500", "150749.927500", "150751.927500", "150753.927500", "150755.927500", "150757.927500", "150759.927500", "150801.927500", "150803.927500", "150805.927500", "150807.927500", "150809.927500", "150811.927500", "150813.927500", "150815.927500", "150817.927500", "150819.927500", "150821.927500", "150823.927500", "150825.927500", "150827.927500", "150829.927500", "150831.927500", "150833.927500", "150835.927500", "150837.927500", "150839.927500", "150841.927500", "150843.927500", "150845.927500", "150847.927500", "150849.927500"],
      "ContentTime": ["150022.578000", "150024.064000", "150026.063000", "150028.063000", "150030.063000", "150032.062000", "150034.062000", "150036.063000", "150038.063000", "150040.063000", "150042.063000", "150044.063000", "150046.063000", "150048.063000", "150050.062000", "150052.063000", "150054.063000", "150056.064000", "150058.063000", "150100.064000", "150102.064000", "150104.064000", "150106.063000", "150108.062000", "150110.063000", "150112.064000", "150114.563000", "150116.063000", "150118.063000", "150120.063000", "150122.064000", "150124.063000", "150126.062000", "150128.064000", "150130.063000", "150132.064000", "150134.064000", "150136.064000", "150138.063000", "150140.063000", "150142.063000", "150144.063000", "150146.064000", "150148.064000", "150150.064000", "150152.063000", "150154.063000", "150156.063000", "150158.064000", "150200.062000", "150202.063000", "150204.063000", "150206.063000", "150208.063000", "150210.063000", "150212.064000", "150214.063000", "150216.063000", "150218.063000", "150220.063000", "150222.064000", "150224.064000", "150226.063000", "150228.063000", "150230.064000", "150232.064000", "150234.062000", "150236.062000", "150238.063000", "150240.064000", "150242.063000", "150244.063000", "150246.564000", "150248.064000", "150250.063000", "150252.063000", "150254.063000", "150256.064000", "150258.063000", "150300.064000", "150302.064000", "150304.063000", "150306.063000", "150308.063000", "150310.062000", "150312.062000", "150314.063000", "150316.563000", "150318.063000", "150320.063000", "150322.564000", "150324.064000", "150326.064000", "150328.063000", "150330.063000", "150332.064000", "150334.063000", "150336.063000", "150338.064000", "150340.064000", "150342.063000", "150344.062000", "150346.062000", "150348.063000", "150350.064000", "150352.063000", "150354.064000", "150356.064000", "150358.563000", "150400.063000", "150402.063000", "150404.063000", "150406.063000", "150408.063000", "150410.063000", "150412.064000", "150414.063000", "150416.063000", "150418.063000", "150420.062000", "150422.063000", "150424.064000", "150426.064000", "150428.563000", "150430.063000", "150432.064000", "150434.063000", "150436.064000", "150438.063000", "150440.063000", "150442.064000", "150444.064000", "150446.063000", "150448.063000", "150450.064000", "150452.063000", "150454.062000", "150456.063000", "150458.063000", "150500.063000", "150502.063000", "150504.063000", "150506.063000", "150508.064000", "150510.063000", "150512.063000", "150514.062000", "150516.064000", "150518.064000", "150520.064000", "150522.064000", "150524.064000", "150526.064000", "150528.064000", "150530.063000", "150532.063000", "150534.064000", "150536.063000", "150538.063000", "150540.064000", "150542.063000", "150544.063000", "150546.065000", "150548.064000", "150550.064000", "150552.063000", "150554.063000", "150556.063000", "150558.563000", "150600.063000", "150602.064000", "150604.063000", "150606.062000", "150608.063000", "150610.063000", "150612.063000", "150614.077000", "150616.064000", "150618.064000", "150620.063000", "150622.062000", "150624.063000", "150626.063000", "150628.063000", "150630.064000", "150632.064000", "150634.063000", "150636.063000", "150638.064000", "150640.063000", "150642.063000", "150644.083000", "150646.064000", "150648.064000", "150650.064000", "150652.064000", "150654.063000", "150656.064000", "150658.063000", "150700.084000", "150702.064000", "150704.063000", "150706.064000", "150708.064000", "150710.064000", "150712.064000", "150714.062000", "150716.063000", "150718.064000", "150720.063000", "150722.063000", "150724.064000", "150726.064000", "150728.064000", "150730.064000", "150732.062000", "150734.062000", "150736.064000", "150738.063000", "150740.064000", "150742.064000", "150744.064000", "150746.063000", "150748.064000", "150750.062000", "150752.063000", "150754.564000", "150756.064000", "150758.064000", "150800.064000", "150802.063000", "150804.064000", "150806.064000", "150808.062000", "150810.063000", "150812.064000", "150814.064000", "150816.063000", "150818.064000", "150820.063000", "150822.064000", "150824.063000", "150826.562000", "150828.064000", "150830.063000", "150832.063000", "150834.064000", "150836.063000", "150838.064000", "150840.064000", "150842.062000", "150844.062000", "150846.064000", "150848.063000", "150850.063000", "150851.936000"],
      "InstanceCreationTime": ["150022.578000", "150024.064000", "150026.063000", "150028.063000", "150030.063000", "150032.062000", "150034.062000", "150036.063000", "150038.063000", "150040.063000", "150042.063000", "150044.063000", "150046.063000", "150048.063000", "150050.062000", "150052.063000", "150054.063000", "150056.064000", "150058.063000", "150100.064000", "150102.064000", "150104.064000", "150106.063000", "150108.062000", "150110.063000", "150112.064000", "150114.563000", "150116.063000", "150118.063000", "150120.063000", "150122.064000", "150124.063000", "150126.062000", "150128.064000", "150130.063000", "150132.064000", "150134.064000", "150136.064000", "150138.063000", "150140.063000", "150142.063000", "150144.063000", "150146.064000", "150148.064000", "150150.064000", "150152.063000", "150154.063000", "150156.063000", "150158.064000", "150200.062000", "150202.063000", "150204.063000", "150206.063000", "150208.063000", "150210.063000", "150212.064000", "150214.063000", "150216.063000", "150218.063000", "150220.063000", "150222.064000", "150224.064000", "150226.063000", "150228.063000", "150230.064000", "150232.064000", "150234.062000", "150236.062000", "150238.063000", "150240.064000", "150242.063000", "150244.063000", "150246.564000", "150248.064000", "150250.063000", "150252.063000", "150254.063000", "150256.064000", "150258.063000", "150300.064000", "150302.064000", "150304.063000", "150306.063000", "150308.063000", "150310.062000", "150312.062000", "150314.063000", "150316.563000", "150318.063000", "150320.063000", "150322.564000", "150324.064000", "150326.064000", "150328.063000", "150330.063000", "150332.064000", "150334.063000", "150336.063000", "150338.064000", "150340.064000", "150342.063000", "150344.062000", "150346.062000", "150348.063000", "150350.064000", "150352.063000", "150354.064000", "150356.064000", "150358.563000", "150400.063000", "150402.063000", "150404.063000", "150406.063000", "150408.063000", "150410.063000", "150412.064000", "150414.063000", "150416.063000", "150418.063000", "150420.062000", "150422.063000", "150424.064000", "150426.064000", "150428.563000", "150430.063000", "150432.064000", "150434.063000", "150436.064000", "150438.063000", "150440.063000", "150442.064000", "150444.064000", "150446.063000", "150448.063000", "150450.064000", "150452.063000", "150454.062000", "150456.063000", "150458.063000", "150500.063000", "150502.063000", "150504.063000", "150506.063000", "150508.064000", "150510.063000", "150512.063000", "150514.062000", "150516.064000", "150518.064000", "150520.064000", "150522.064000", "150524.064000", "150526.064000", "150528.064000", "150530.063000", "150532.063000", "150534.064000", "150536.063000", "150538.063000", "150540.064000", "150542.063000", "150544.063000", "150546.065000", "150548.064000", "150550.064000", "150552.063000", "150554.063000", "150556.063000", "150558.563000", "150600.063000", "150602.064000", "150604.063000", "150606.062000", "150608.063000", "150610.063000", "150612.063000", "150614.077000", "150616.064000", "150618.064000", "150620.063000", "150622.062000", "150624.063000", "150626.063000", "150628.063000", "150630.064000", "150632.064000", "150634.063000", "150636.063000", "150638.064000", "150640.063000", "150642.063000", "150644.083000", "150646.064000", "150648.064000", "150650.064000", "150652.064000", "150654.063000", "150656.064000", "150658.063000", "150700.084000", "150702.064000", "150704.063000", "150706.064000", "150708.064000", "150710.064000", "150712.064000", "150714.062000", "150716.063000", "150718.064000", "150720.063000", "150722.063000", "150724.064000", "150726.064000", "150728.064000", "150730.064000", "150732.062000", "150734.062000", "150736.064000", "150738.063000", "150740.064000", "150742.064000", "150744.064000", "150746.063000", "150748.064000", "150750.062000", "150752.063000", "150754.564000", "150756.064000", "150758.064000", "150800.064000", "150802.063000", "150804.064000", "150806.064000", "150808.062000", "150810.063000", "150812.064000", "150814.064000", "150816.063000", "150818.064000", "150820.063000", "150822.064000", "150824.063000", "150826.562000", "150828.064000", "150830.063000", "150832.063000", "150834.064000", "150836.063000", "150838.064000", "150840.064000", "150842.062000", "150844.062000", "150846.064000", "150848.063000", "150850.063000", "150851.936000"],
      "InstanceNumber": [1, 2, 3, 4, 5, 6, 7, 8, 9, 10, 11, 12, 13, 14, 15, 16, 17, 18, 19, 20, 21, 22, 23, 24, 25, 26, 27, 28, 29, 30, 31, 32, 33, 34, 35, 36, 37, 38, 39, 40, 41, 42, 43, 44, 45, 46, 47, 48, 49, 50, 51, 52, 53, 54, 55, 56, 57, 58, 59, 60, 61, 62, 63, 64, 65, 66, 67, 68, 69, 70, 71, 72, 73, 74, 75, 76, 77, 78, 79, 80, 81, 82, 83, 84, 85, 86, 87, 88, 89, 90, 91, 92, 93, 94, 95, 96, 97, 98, 99, 100, 101, 102, 103, 104, 105, 106, 107, 108, 109, 110, 111, 112, 113, 114, 115, 116, 117, 118, 119, 120, 121, 122, 123, 124, 125, 126, 127, 128, 129, 130, 131, 132, 133, 134, 135, 136, 137, 138, 139, 140, 141, 142, 143, 144, 145, 146, 147, 148, 149, 150, 151, 152, 153, 154, 155, 156, 157, 158, 159, 160, 161, 162, 163, 164, 165, 166, 167, 168, 169, 170, 171, 172, 173, 174, 175, 176, 177, 178, 179, 180, 181, 182, 183, 184, 185, 186, 187, 188, 189, 190, 191, 192, 193, 194, 195, 196, 197, 198, 199, 200, 201, 202, 203, 204, 205, 206, 207, 208, 209, 210, 211, 212, 213, 214, 215, 216, 217, 218, 219, 220, 221, 222, 223, 224, 225, 226, 227, 228, 229, 230, 231, 232, 233, 234, 235, 236, 237, 238, 239, 240, 241, 242, 243, 244, 245, 246, 247, 248, 249, 250, 251, 252, 253, 254, 255, 256],
      "LargestImagePixelValue": [3848, 3804, 3776, 3773, 3762, 3741, 3798, 3783, 3792, 3812, 3806, 3799, 3786, 3799, 3828, 3801, 3777, 3807, 3819, 3812, 3836, 3826, 3850, 3827, 3831, 3839, 3834, 3810, 3822, 3834, 3836, 3833, 3806, 3823, 3816, 3834, 3861, 3831, 3861, 3847, 3804, 3806, 3834, 3840, 3809, 3832, 3809, 3827, 3834, 3804, 3779, 3809, 3794, 3807, 3802, 3794, 3832, 3824, 3850, 3825, 3829, 3824, 3832, 3820, 3823, 3854, 3834, 3817, 3829, 3834, 3827, 3831, 3826, 3851, 3839, 3804, 3824, 3813, 3863, 3829, 3804, 3796, 3794, 3800, 3800, 3828, 3748, 3742, 3710, 3753, 3781, 3695, 3742, 3749, 3751, 3732, 3759, 3729, 3749, 3715, 3754, 3711, 3739, 3730, 3745, 3743, 3762, 3734, 3760, 3785, 3759, 3713, 3769, 3731, 3760, 3768, 3752, 3753, 3767, 3808, 3789, 3777, 3798, 3761, 3774, 3783, 3771, 3767, 3764, 3778, 3758, 3798, 3796, 3799, 3805, 3802, 3781, 3753, 3759, 3786, 3787, 3787, 3793, 3787, 3770, 3804, 3814, 3824, 3826, 3813, 3816, 3812, 3805, 3830, 3798, 3816, 3788, 3785, 3785, 3802, 3806, 3797, 3804, 3790, 3809, 3809, 3779, 3763, 3800, 3785, 3765, 3769, 3795, 3761, 3786, 3719, 3723, 3796, 3796, 3750, 3749, 3740, 3777, 3783, 3800, 3802, 3788, 3815, 3805, 3782, 3816, 3795, 3774, 3814, 3812, 3787, 3768, 3760, 3805, 3762, 3732, 3728, 3750, 3726, 3757, 3762, 3754, 3741, 3727, 3720, 3712, 3701, 3716, 3751, 3746, 3722, 3771, 3790, 3733, 3718, 3721, 3712, 3718, 3736, 3768, 3752, 3753, 3761, 3796, 3796, 3745, 3724, 3713, 3712, 3718, 3737, 3744, 3759, 3771, 3825, 3744, 3719, 3709, 3741, 3717, 3743, 3693, 3683, 3718, 3700, 3710, 3703, 3685, 3636, 3659, 3818],
      "WindowCenter": [814.0, 813.0, 814.0, 815.0, 814.0, 814.0, 813.0, 813.0, 813.0, 812.0, 813.0, 813.0, 813.0, 813.0, 813.0, 812.0, 812.0, 811.0, 811.0, 810.0, 810.0, 810.0, 812.0, 812.0, 812.0, 811.0, 811.0, 811.0, 812.0, 811.0, 811.0, 811.0, 810.0, 810.0, 810.0, 810.0, 810.0, 809.0, 810.0, 811.0, 813.0, 812.0, 810.0, 809.0, 809.0, 811.0, 811.0, 811.0, 812.0, 812.0, 813.0, 813.0, 813.0, 813.0, 813.0, 812.0, 813.0, 812.0, 813.0, 811.0, 812.0, 811.0, 812.0, 812.0, 812.0, 811.0, 812.0, 811.0, 811.0, 812.0, 812.0, 812.0, 811.0, 811.0, 811.0, 810.0, 812.0, 811.0, 812.0, 812.0, 812.0, 811.0, 812.0, 812.0, 812.0, 813.0, 812.0, 812.0, 812.0, 812.0, 813.0, 812.0, 812.0, 812.0, 812.0, 811.0, 812.0, 811.0, 810.0, 811.0, 812.0, 811.0, 812.0, 812.0, 812.0, 812.0, 813.0, 812.0, 810.0, 810.0, 811.0, 811.0, 812.0, 811.0, 811.0, 811.0, 813.0, 813.0, 813.0, 813.0, 813.0, 813.0, 815.0, 815.0, 814.0, 813.0, 813.0, 812.0, 812.0, 812.0, 812.0, 812.0, 813.0, 812.0, 812.0, 812.0, 813.0, 815.0, 815.0, 814.0, 813.0, 814.0, 816.0, 815.0, 813.0, 811.0, 811.0, 810.0, 811.0, 811.0, 812.0, 813.0, 814.0, 813.0, 812.0, 813.0, 813.0, 814.0, 815.0, 815.0, 814.0, 814.0, 813.0, 812.0, 811.0, 811.0, 814.0, 813.0, 812.0, 813.0, 816.0, 815.0, 814.0, 814.0, 816.0, 816.0, 814.0, 812.0, 812.0, 813.0, 813.0, 813.0, 812.0, 810.0, 810.0, 810.0, 811.0, 812.0, 811.0, 811.0, 813.0, 813.0, 811.0, 811.0, 811.0, 811.0, 812.0, 812.0, 814.0, 813.0, 813.0, 812.0, 814.0, 815.0, 814.0, 810.0, 808.0, 808.0, 810.0, 811.0, 811.0, 811.0, 811.0, 811.0, 813.0, 812.0, 812.0, 812.0, 813.0, 812.0, 813.0, 812.0, 812.0, 811.0, 810.0, 811.0, 812.0, 811.0, 811.0, 810.0, 812.0, 812.0, 811.0, 809.0, 810.0, 811.0, 812.0, 813.0, 815.0, 814.0, 812.0, 810.0, 810.0, 810.0, 809.0, 811.0, 812.0, 811.0, 811.0, 810.0, 810.0, 811.0, 813.0, 813.0, 813.0, 814.0],
      "WindowWidth": [1767.0, 1765.0, 1768.0, 1770.0, 1769.0, 1766.0, 1766.0, 1765.0, 1764.0, 1763.0, 1765.0, 1765.0, 1766.0, 1765.0, 1764.0, 1762.0, 1761.0, 1758.0, 1759.0, 1757.0, 1756.0, 1757.0, 1762.0, 1762.0, 1761.0, 1758.0, 1759.0, 1759.0, 1760.0, 1759.0, 1760.0, 1758.0, 1757.0, 1755.0, 1757.0, 1756.0, 1755.0, 1754.0, 1756.0, 1757.0, 1763.0, 1761.0, 1757.0, 1753.0, 1754.0, 1757.0, 1760.0, 1759.0, 1760.0, 1761.0, 1763.0, 1765.0, 1765.0, 1764.0, 1763.0, 1762.0, 1765.0, 1762.0, 1763.0, 1759.0, 1761.0, 1759.0, 1760.0, 1760.0, 1761.0, 1759.0, 1760.0, 1759.0, 1759.0, 1761.0, 1762.0, 1760.0, 1758.0, 1758.0, 1758.0, 1756.0, 1760.0, 1759.0, 1760.0, 1760.0, 1760.0, 1758.0, 1760.0, 1759.0, 1761.0, 1762.0, 1760.0, 1759.0, 1760.0, 1760.0, 1761.0, 1759.0, 1760.0, 1758.0, 1759.0, 1758.0, 1759.0, 1756.0, 1755.0, 1755.0, 1758.0, 1757.0, 1758.0, 1760.0, 1760.0, 1761.0, 1762.0, 1758.0, 1755.0, 1754.0, 1757.0, 1757.0, 1759.0, 1756.0, 1755.0, 1756.0, 1760.0, 1762.0, 1761.0, 1761.0, 1761.0, 1763.0, 1767.0, 1766.0, 1765.0, 1761.0, 1760.0, 1759.0, 1759.0, 1759.0, 1759.0, 1760.0, 1763.0, 1760.0, 1759.0, 1760.0, 1763.0, 1768.0, 1768.0, 1765.0, 1763.0, 1763.0, 1769.0, 1767.0, 1761.0, 1755.0, 1756.0, 1755.0, 1757.0, 1757.0, 1759.0, 1762.0, 1764.0, 1762.0, 1759.0, 1760.0, 1762.0, 1764.0, 1767.0, 1767.0, 1765.0, 1764.0, 1762.0, 1759.0, 1756.0, 1757.0, 1763.0, 1760.0, 1759.0, 1762.0, 1768.0, 1765.0, 1762.0, 1762.0, 1769.0, 1769.0, 1762.0, 1756.0, 1758.0, 1760.0, 1761.0, 1760.0, 1758.0, 1754.0, 1754.0, 1754.0, 1756.0, 1759.0, 1757.0, 1757.0, 1761.0, 1760.0, 1756.0, 1755.0, 1757.0, 1756.0, 1757.0, 1757.0, 1762.0, 1760.0, 1760.0, 1759.0, 1762.0, 1764.0, 1763.0, 1752.0, 1748.0, 1747.0, 1752.0, 1754.0, 1756.0, 1755.0, 1754.0, 1755.0, 1760.0, 1758.0, 1758.0, 1757.0, 1759.0, 1756.0, 1759.0, 1757.0, 1756.0, 1754.0, 1753.0, 1754.0, 1756.0, 1755.0, 1754.0, 1753.0, 1758.0, 1758.0, 1756.0, 1750.0, 1752.0, 1755.0, 1758.0, 1761.0, 1766.0, 1763.0, 1757.0, 1752.0, 1752.0, 1751.0, 1750.0, 1755.0, 1755.0, 1753.0, 1753.0, 1752.0, 1750.0, 1753.0, 1760.0, 1760.0, 1761.0, 1762.0]
    },
    "slices": {}
  }
}