{
  "AcquisitionMatrixPE": 100,
  "AcquisitionNumber": 1,
  "AcquisitionTime": "16:09:7.160000",
  "BandwidthPerPixelPhaseEncode": 18.519,
  "BaseResolution": 100,
  "BodyPartExamined": "BRAIN",
  "ConsistencyInfo": "N4_VE11C_LATEST_20160120",
  "ConversionSoftware": "dcm2niix",
  "ConversionSoftwareVersion": "v1.0.20180622 GCC4.9.2",
  "DerivedVendorReportedEchoSpacing": 0.000539986,
  "DeviceSerialNumber": "166078",
  "DwellTime": 2.1e-06,
  "EchoTime": 0.034,
  "EchoTrainLength": 100,
  "EffectiveEchoSpacing": 0.000539986,
  "FlipAngle": 90,
  "ImageOrientationPatientDICOM": [1, 0, 0, 0, 0.966823, -0.255446],
  "ImageType": [
    "ORIGINAL",
    "PRIMARY",
    "M",
    "ND",
    "MOSAIC"
],
  "InPlanePhaseEncodingDirectionDICOM": "COL",
  "InstitutionAddress": "Street_StreetNo_Bei_Jing_District_CN_ZIP",
  "InstitutionName": "BeiJing_Normal_University",
  "InstitutionalDepartmentName": "Department",
  "MRAcquisitionType": "2D",
  "MagneticFieldStrength": 3,
  "Manufacturer": "Siemens",
  "ManufacturersModelName": "Prisma",
  "Modality": "MR",
  "MultibandAccelerationFactor": 3,
  "PartialFourier": 1,
  "PatientPosition": "HFS",
  "PercentPhaseFOV": 100,
  "PhaseEncodingDirection": "j-",
  "PhaseEncodingSteps": 100,
  "PhaseResolution": 1,
  "PixelBandwidth": 2380,
  "ProcedureStepDescription": "BNU_P2018_64CH_Zhen.ZongLei",
  "ProtocolName": "bold_100x100_s3_2x2x2_static_256",
  "PulseSequenceDetails": "%SiemensSeq%_ep2d_bold",
  "ReceiveCoilActiveElements": "HC1-7;NC1",
  "ReceiveCoilName": "HeadNeck_64",
  "ReconMatrixPE": 100,
  "RepetitionTime": 2,
  "SAR": 0.0860847,
  "ScanOptions": "FS",
  "ScanningSequence": "EP",
  "SequenceName": "_epfid2d1_100",
  "SequenceVariant": "SK",
  "SeriesDescription": "bold_100x100_s3_2x2x2_static_256",
  "SeriesNumber": 12,
  "ShimSetting": [-5471, -11503, -1236, 217, -150, -424, -93, 13],
  "SliceThickness": 2,
  "SliceTiming": [1.485, 0, 0.99, 0.0825, 1.0725, 0.165, 1.155, 0.2475, 1.2375, 0.33, 1.32, 0.4125, 1.4025, 0.5775, 1.5675, 0.66, 1.65, 0.7425, 1.7325, 0.825, 1.815, 0.9075, 1.8975, 0.495, 1.485, 0, 0.99, 0.0825, 1.0725, 0.165, 1.155, 0.2475, 1.2375, 0.33, 1.32, 0.4125, 1.4025, 0.5775, 1.5675, 0.66, 1.65, 0.7425, 1.7325, 0.825, 1.815, 0.9075, 1.8975, 0.495, 1.485, 0, 0.99, 0.0825, 1.0725, 0.165, 1.155, 0.2475, 1.2375, 0.33, 1.32, 0.4125, 1.4025, 0.5775, 1.5675, 0.66, 1.65, 0.7425, 1.7325, 0.825, 1.815, 0.9075, 1.8975, 0.495],
  "SoftwareVersions": "syngo_MR_E11",
  "SpacingBetweenSlices": 2,
  "StationName": "AWP166078",
  "TaskName": "naturalvision",
  "TotalReadoutTime": 0.0534586,
  "TxRefAmp": 247.435,
  "dcmmeta_affine": [
    [-2.0, 0.0, 0.0, 102.03389739990234],
    [0.0, 1.93364679813385, -0.5108914971351624, -74.67015838623047],
    [0.0, 0.5108914971351624, 1.9336466789245605, -95.6539306640625],
    [0.0, 0.0, 0.0, 1.0]
],
  "dcmmeta_reorient_transform": [
    [0.0, -1.0, 0.0, 99.0],
    [1.0, 0.0, 0.0, 0.0],
    [0.0, 0.0, 1.0, 0.0],
    [0.0, 0.0, 0.0, 1.0]
],
  "dcmmeta_shape": [100, 100, 72, 256],
  "dcmmeta_slice_dim": 2,
  "dcmmeta_version": 0.6,
  "global": {
    "const": {
      "AcquisitionMatrix": [100, 0, 0, 100],
      "AngioFlag": "N",
      "BitsAllocated": 16,
      "BitsStored": 12,
      "BodyPartExamined": "BRAIN",
      "Columns": 900,
      "EchoNumbers": 1,
      "EchoTime": 34.0,
      "EchoTrainLength": 100,
      "FlipAngle": 90.0,
      "HighBit": 11,
      "ImageOrientationPatient": [1.0, 0.0, 0.0, 0.0, 0.96682339000573, -0.2554457526322],
      "ImagePositionPatient": [-902.03389835358, -890.21958799246, 159.28093048175],
      "ImageType": [
        "ORIGINAL",
        "PRIMARY",
        "M",
        "ND",
        "MOSAIC"
],
      "ImagedNucleus": "1H",
      "ImagingFrequency": 123.257734,
      "InPlanePhaseEncodingDirection": "COL",
      "MRAcquisitionType": "2D",
      "MagneticFieldStrength": 3.0,
      "Manufacturer": "SIEMENS",
      "ManufacturerModelName": "Prisma",
      "Modality": "MR",
      "NumberOfAverages": 1.0,
      "NumberOfPhaseEncodingSteps": 100,
      "PercentPhaseFieldOfView": 100.0,
      "PercentSampling": 100.0,
      "PerformedProcedureStepStartTime": "145716.168000",
      "PhotometricInterpretation": "MONOCHROME2",
      "PixelBandwidth": 2380.0,
      "PixelRepresentation": 0,
      "PixelSpacing": [2.0, 2.0],
      "ProtocolName": "bold_100x100_s3_2x2x2_static_256",
      "RepetitionTime": 2000.0,
      "Rows": 900,
      "SAR": 0.08608472486551,
      "SamplesPerPixel": 1,
      "ScanOptions": "FS",
      "ScanningSequence": "EP",
      "SequenceName": "*epfid2d1_100",
      "SequenceVariant": "SK",
      "SeriesDescription": "bold_100x100_s3_2x2x2_static_256",
      "SeriesNumber": 12,
      "SeriesTime": "160909.427000",
      "SliceLocation": -73.406283491006,
      "SliceThickness": 2.0,
      "SmallestImagePixelValue": 0,
      "SoftwareVersions": "syngo MR E11",
      "SpacingBetweenSlices": 1.9999999458571,
      "SpecificCharacterSet": "ISO_IR 100",
      "StudyID": "1",
      "StudyTime": "145716.108000",
      "TransmitCoilName": "Body",
      "VariableFlipAngleFlag": "N",
      "WindowCenterWidthExplanation": "Algo1",
      "dBdt": 0.0},
    "slices": {}
  },
  "time": {
    "samples": {
      "AcquisitionNumber": [1, 2, 3, 4, 5, 6, 7, 8, 9, 10, 11, 12, 13, 14, 15, 16, 17, 18, 19, 20, 21, 22, 23, 24, 25, 26, 27, 28, 29, 30, 31, 32, 33, 34, 35, 36, 37, 38, 39, 40, 41, 42, 43, 44, 45, 46, 47, 48, 49, 50, 51, 52, 53, 54, 55, 56, 57, 58, 59, 60, 61, 62, 63, 64, 65, 66, 67, 68, 69, 70, 71, 72, 73, 74, 75, 76, 77, 78, 79, 80, 81, 82, 83, 84, 85, 86, 87, 88, 89, 90, 91, 92, 93, 94, 95, 96, 97, 98, 99, 100, 101, 102, 103, 104, 105, 106, 107, 108, 109, 110, 111, 112, 113, 114, 115, 116, 117, 118, 119, 120, 121, 122, 123, 124, 125, 126, 127, 128, 129, 130, 131, 132, 133, 134, 135, 136, 137, 138, 139, 140, 141, 142, 143, 144, 145, 146, 147, 148, 149, 150, 151, 152, 153, 154, 155, 156, 157, 158, 159, 160, 161, 162, 163, 164, 165, 166, 167, 168, 169, 170, 171, 172, 173, 174, 175, 176, 177, 178, 179, 180, 181, 182, 183, 184, 185, 186, 187, 188, 189, 190, 191, 192, 193, 194, 195, 196, 197, 198, 199, 200, 201, 202, 203, 204, 205, 206, 207, 208, 209, 210, 211, 212, 213, 214, 215, 216, 217, 218, 219, 220, 221, 222, 223, 224, 225, 226, 227, 228, 229, 230, 231, 232, 233, 234, 235, 236, 237, 238, 239, 240, 241, 242, 243, 244, 245, 246, 247, 248, 249, 250, 251, 252, 253, 254, 255, 256],
      "AcquisitionTime": ["160907.160000", "160909.160000", "160911.160000", "160913.160000", "160915.160000", "160917.160000", "160919.160000", "160921.160000", "160923.160000", "160925.160000", "160927.160000", "160929.160000", "160931.160000", "160933.160000", "160935.160000", "160937.160000", "160939.160000", "160941.160000", "160943.160000", "160945.160000", "160947.160000", "160949.160000", "160951.160000", "160953.160000", "160955.160000", "160957.160000", "160959.160000", "161001.160000", "161003.160000", "161005.160000", "161007.160000", "161009.160000", "161011.160000", "161013.160000", "161015.160000", "161017.160000", "161019.160000", "161021.160000", "161023.160000", "161025.160000", "161027.160000", "161029.160000", "161031.160000", "161033.160000", "161035.160000", "161037.160000", "161039.160000", "161041.160000", "161043.160000", "161045.160000", "161047.160000", "161049.160000", "161051.160000", "161053.160000", "161055.160000", "161057.160000", "161059.160000", "161101.160000", "161103.160000", "161105.160000", "161107.160000", "161109.160000", "161111.160000", "161113.160000", "161115.160000", "161117.160000", "161119.160000", "161121.160000", "161123.160000", "161125.160000", "161127.160000", "161129.160000", "161131.160000", "161133.160000", "161135.160000", "161137.160000", "161139.160000", "161141.160000", "161143.160000", "161145.160000", "161147.160000", "161149.160000", "161151.160000", "161153.160000", "161155.160000", "161157.160000", "161159.160000", "161201.160000", "161203.160000", "161205.160000", "161207.160000", "161209.160000", "161211.160000", "161213.160000", "161215.160000", "161217.160000", "161219.160000", "161221.160000", "161223.160000", "161225.160000", "161227.160000", "161229.160000", "161231.160000", "161233.160000", "161235.160000", "161237.160000", "161239.160000", "161241.160000", "161243.160000", "161245.160000", "161247.160000", "161249.160000", "161251.160000", "161253.160000", "161255.160000", "161257.160000", "161259.160000", "161301.160000", "161303.160000", "161305.160000", "161307.160000", "161309.160000", "161311.160000", "161313.160000", "161315.160000", "161317.160000", "161319.160000", "161321.160000", "161323.160000", "161325.160000", "161327.160000", "161329.160000", "161331.160000", "161333.160000", "161335.160000", "161337.160000", "161339.160000", "161341.160000", "161343.160000", "161345.160000", "161347.160000", "161349.160000", "161351.160000", "161353.160000", "161355.160000", "161357.160000", "161359.160000", "161401.160000", "161403.160000", "161405.160000", "161407.160000", "161409.160000", "161411.160000", "161413.160000", "161415.160000", "161417.160000", "161419.160000", "161421.160000", "161423.160000", "161425.160000", "161427.160000", "161429.160000", "161431.160000", "161433.160000", "161435.160000", "161437.160000", "161439.160000", "161441.160000", "161443.160000", "161445.160000", "161447.160000", "161449.160000", "161451.160000", "161453.160000", "161455.160000", "161457.160000", "161459.160000", "161501.160000", "161503.160000", "161505.160000", "161507.160000", "161509.160000", "161511.160000", "161513.160000", "161515.160000", "161517.160000", "161519.160000", "161521.160000", "161523.160000", "161525.160000", "161527.160000", "161529.160000", "161531.160000", "161533.160000", "161535.160000", "161537.160000", "161539.160000", "161541.160000", "161543.160000", "161545.160000", "161547.160000", "161549.160000", "161551.160000", "161553.160000", "161555.160000", "161557.160000", "161559.160000", "161601.160000", "161603.160000", "161605.160000", "161607.160000", "161609.160000", "161611.160000", "161613.160000", "161615.160000", "161617.160000", "161619.160000", "161621.160000", "161623.160000", "161625.160000", "161627.160000", "161629.160000", "161631.160000", "161633.160000", "161635.160000", "161637.160000", "161639.160000", "161641.160000", "161643.160000", "161645.160000", "161647.160000", "161649.160000", "161651.160000", "161653.160000", "161655.160000", "161657.160000", "161659.160000", "161701.160000", "161703.160000", "161705.160000", "161707.160000", "161709.160000", "161711.160000", "161713.160000", "161715.160000", "161717.160000", "161719.160000", "161721.160000", "161723.160000", "161725.160000", "161727.160000", "161729.160000", "161731.160000", "161733.160000", "161735.160000", "161737.160000"],
      "ContentTime": ["160909.431000", "160910.926000", "160912.926000", "160914.925000", "160916.925000", "160918.926000", "160920.926000", "160922.926000", "160924.926000", "160926.926000", "160928.927000", "160930.927000", "160932.926000", "160934.925000", "160936.926000", "160938.926000", "160940.927000", "160942.926000", "160944.927000", "160946.926000", "160948.927000", "160950.926000", "160952.925000", "160954.925000", "160956.926000", "160958.926000", "161000.927000", "161002.926000", "161004.926000", "161006.926000", "161008.926000", "161010.926000", "161012.926000", "161014.926000", "161016.927000", "161018.926000", "161020.927000", "161022.927000", "161024.925000", "161026.926000", "161028.925000", "161030.925000", "161032.926000", "161034.927000", "161036.926000", "161038.926000", "161040.927000", "161042.925000", "161044.926000", "161046.925000", "161048.926000", "161050.927000", "161052.927000", "161054.927000", "161056.926000", "161058.926000", "161100.925000", "161102.925000", "161104.925000", "161106.926000", "161108.926000", "161110.926000", "161112.927000", "161114.926000", "161116.927000", "161118.926000", "161120.925000", "161122.925000", "161124.926000", "161126.926000", "161128.927000", "161130.926000", "161132.926000", "161134.925000", "161136.926000", "161138.925000", "161140.925000", "161142.926000", "161144.926000", "161146.926000", "161148.926000", "161150.926000", "161152.925000", "161154.926000", "161156.925000", "161158.927000", "161200.927000", "161202.927000", "161204.926000", "161206.926000", "161208.926000", "161210.926000", "161212.925000", "161214.926000", "161216.926000", "161218.927000", "161220.927000", "161222.926000", "161224.927000", "161226.926000", "161228.925000", "161230.925000", "161232.926000", "161234.927000", "161236.926000", "161238.927000", "161240.926000", "161242.927000", "161244.925000", "161246.925000", "161248.926000", "161250.926000", "161252.927000", "161254.927000", "161256.926000", "161258.927000", "161300.927000", "161302.925000", "161304.925000", "161306.926000", "161308.926000", "161310.926000", "161312.927000", "161314.927000", "161316.927000", "161318.927000", "161320.925000", "161322.926000", "161324.925000", "161326.927000", "161328.927000", "161330.927000", "161332.927000", "161334.927000", "161336.926000", "161338.925000", "161340.926000", "161342.925000", "161344.927000", "161346.927000", "161348.926000", "161350.927000", "161352.927000", "161354.925000", "161356.925000", "161358.925000", "161400.927000", "161402.926000", "161404.926000", "161406.926000", "161408.927000", "161410.927000", "161412.925000", "161414.925000", "161416.925000", "161418.927000", "161420.927000", "161422.927000", "161424.927000", "161426.927000", "161428.927000", "161430.925000", "161432.925000", "161434.925000", "161436.926000", "161438.926000", "161440.927000", "161442.927000", "161444.926000", "161446.927000", "161448.925000", "161450.925000", "161452.925000", "161454.926000", "161456.926000", "161458.926000", "161500.926000", "161502.927000", "161504.926000", "161506.926000", "161508.925000", "161510.927000", "161512.926000", "161514.927000", "161516.927000", "161518.926000", "161520.926000", "161522.934000", "161524.926000", "161526.926000", "161528.927000", "161530.927000", "161532.927000", "161534.927000", "161536.927000", "161538.926000", "161540.925000", "161542.926000", "161544.925000", "161546.927000", "161548.927000", "161550.927000", "161552.927000", "161554.927000", "161556.927000", "161558.925000", "161600.926000", "161602.925000", "161604.926000", "161606.926000", "161608.927000", "161610.927000", "161612.927000", "161614.926000", "161616.926000", "161618.925000", "161620.927000", "161622.926000", "161624.927000", "161626.927000", "161628.927000", "161630.927000", "161632.926000", "161634.925000", "161636.926000", "161638.927000", "161640.927000", "161642.926000", "161644.927000", "161646.927000", "161648.926000", "161650.926000", "161652.926000", "161654.926000", "161656.927000", "161658.927000", "161700.927000", "161702.926000", "161704.926000", "161706.925000", "161708.925000", "161710.925000", "161712.926000", "161714.927000", "161716.926000", "161718.926000", "161720.927000", "161722.926000", "161724.925000", "161726.926000", "161728.926000", "161730.927000", "161732.927000", "161734.927000", "161736.927000", "161738.535000"],
      "InstanceCreationTime": ["160909.431000", "160910.926000", "160912.926000", "160914.925000", "160916.925000", "160918.926000", "160920.926000", "160922.926000", "160924.926000", "160926.926000", "160928.927000", "160930.927000", "160932.926000", "160934.925000", "160936.926000", "160938.926000", "160940.927000", "160942.926000", "160944.927000", "160946.926000", "160948.927000", "160950.926000", "160952.925000", "160954.925000", "160956.926000", "160958.926000", "161000.927000", "161002.926000", "161004.926000", "161006.926000", "161008.926000", "161010.926000", "161012.926000", "161014.926000", "161016.927000", "161018.926000", "161020.927000", "161022.927000", "161024.925000", "161026.926000", "161028.925000", "161030.925000", "161032.926000", "161034.927000", "161036.926000", "161038.926000", "161040.927000", "161042.925000", "161044.926000", "161046.925000", "161048.926000", "161050.927000", "161052.927000", "161054.927000", "161056.926000", "161058.926000", "161100.925000", "161102.925000", "161104.925000", "161106.926000", "161108.926000", "161110.926000", "161112.927000", "161114.926000", "161116.927000", "161118.926000", "161120.925000", "161122.925000", "161124.926000", "161126.926000", "161128.927000", "161130.926000", "161132.926000", "161134.925000", "161136.926000", "161138.925000", "161140.925000", "161142.926000", "161144.926000", "161146.926000", "161148.926000", "161150.926000", "161152.925000", "161154.926000", "161156.925000", "161158.927000", "161200.927000", "161202.927000", "161204.926000", "161206.926000", "161208.926000", "161210.926000", "161212.925000", "161214.926000", "161216.926000", "161218.927000", "161220.927000", "161222.926000", "161224.927000", "161226.926000", "161228.925000", "161230.925000", "161232.926000", "161234.927000", "161236.926000", "161238.927000", "161240.926000", "161242.927000", "161244.925000", "161246.925000", "161248.926000", "161250.926000", "161252.927000", "161254.927000", "161256.926000", "161258.927000", "161300.927000", "161302.925000", "161304.925000", "161306.926000", "161308.926000", "161310.926000", "161312.927000", "161314.927000", "161316.927000", "161318.927000", "161320.925000", "161322.926000", "161324.925000", "161326.927000", "161328.927000", "161330.927000", "161332.927000", "161334.927000", "161336.926000", "161338.925000", "161340.926000", "161342.925000", "161344.927000", "161346.927000", "161348.926000", "161350.927000", "161352.927000", "161354.925000", "161356.925000", "161358.925000", "161400.927000", "161402.926000", "161404.926000", "161406.926000", "161408.927000", "161410.927000", "161412.925000", "161414.925000", "161416.925000", "161418.927000", "161420.927000", "161422.927000", "161424.927000", "161426.927000", "161428.927000", "161430.925000", "161432.925000", "161434.925000", "161436.926000", "161438.926000", "161440.927000", "161442.927000", "161444.926000", "161446.927000", "161448.925000", "161450.925000", "161452.925000", "161454.926000", "161456.926000", "161458.926000", "161500.926000", "161502.927000", "161504.926000", "161506.926000", "161508.925000", "161510.927000", "161512.926000", "161514.927000", "161516.927000", "161518.926000", "161520.926000", "161522.934000", "161524.926000", "161526.926000", "161528.927000", "161530.927000", "161532.927000", "161534.927000", "161536.927000", "161538.926000", "161540.925000", "161542.926000", "161544.925000", "161546.927000", "161548.927000", "161550.927000", "161552.927000", "161554.927000", "161556.927000", "161558.925000", "161600.926000", "161602.925000", "161604.926000", "161606.926000", "161608.927000", "161610.927000", "161612.927000", "161614.926000", "161616.926000", "161618.925000", "161620.927000", "161622.926000", "161624.927000", "161626.927000", "161628.927000", "161630.927000", "161632.926000", "161634.925000", "161636.926000", "161638.927000", "161640.927000", "161642.926000", "161644.927000", "161646.927000", "161648.926000", "161650.926000", "161652.926000", "161654.926000", "161656.927000", "161658.927000", "161700.927000", "161702.926000", "161704.926000", "161706.925000", "161708.925000", "161710.925000", "161712.926000", "161714.927000", "161716.926000", "161718.926000", "161720.927000", "161722.926000", "161724.925000", "161726.926000", "161728.926000", "161730.927000", "161732.927000", "161734.927000", "161736.927000", "161738.535000"],
      "InstanceNumber": [1, 2, 3, 4, 5, 6, 7, 8, 9, 10, 11, 12, 13, 14, 15, 16, 17, 18, 19, 20, 21, 22, 23, 24, 25, 26, 27, 28, 29, 30, 31, 32, 33, 34, 35, 36, 37, 38, 39, 40, 41, 42, 43, 44, 45, 46, 47, 48, 49, 50, 51, 52, 53, 54, 55, 56, 57, 58, 59, 60, 61, 62, 63, 64, 65, 66, 67, 68, 69, 70, 71, 72, 73, 74, 75, 76, 77, 78, 79, 80, 81, 82, 83, 84, 85, 86, 87, 88, 89, 90, 91, 92, 93, 94, 95, 96, 97, 98, 99, 100, 101, 102, 103, 104, 105, 106, 107, 108, 109, 110, 111, 112, 113, 114, 115, 116, 117, 118, 119, 120, 121, 122, 123, 124, 125, 126, 127, 128, 129, 130, 131, 132, 133, 134, 135, 136, 137, 138, 139, 140, 141, 142, 143, 144, 145, 146, 147, 148, 149, 150, 151, 152, 153, 154, 155, 156, 157, 158, 159, 160, 161, 162, 163, 164, 165, 166, 167, 168, 169, 170, 171, 172, 173, 174, 175, 176, 177, 178, 179, 180, 181, 182, 183, 184, 185, 186, 187, 188, 189, 190, 191, 192, 193, 194, 195, 196, 197, 198, 199, 200, 201, 202, 203, 204, 205, 206, 207, 208, 209, 210, 211, 212, 213, 214, 215, 216, 217, 218, 219, 220, 221, 222, 223, 224, 225, 226, 227, 228, 229, 230, 231, 232, 233, 234, 235, 236, 237, 238, 239, 240, 241, 242, 243, 244, 245, 246, 247, 248, 249, 250, 251, 252, 253, 254, 255, 256],
      "LargestImagePixelValue": [3734, 3758, 3673, 3662, 3769, 3807, 3695, 3676, 3704, 3702, 3690, 3828, 3831, 3725, 3754, 3783, 3763, 3773, 3733, 3688, 3783, 3892, 3777, 3741, 3739, 3856, 3951, 3733, 3800, 3748, 3755, 3766, 3805, 3988, 3893, 3826, 3897, 3825, 3735, 3800, 3685, 3746, 3843, 3695, 3714, 3728, 3709, 3712, 3665, 3695, 3731, 3733, 3758, 3732, 3745, 3723, 3741, 3823, 3736, 3722, 3717, 3751, 3715, 3766, 3711, 3756, 3845, 3689, 3718, 3688, 3650, 3703, 3802, 3791, 3806, 3693, 3675, 3677, 3705, 3681, 3662, 3692, 3743, 3660, 3742, 3692, 3666, 3669, 3822, 3731, 3688, 3881, 3736, 3701, 3763, 3785, 3732, 3857, 3699, 3740, 3683, 3704, 3682, 3867, 3868, 3661, 3610, 3657, 3760, 3835, 3816, 3748, 3647, 3617, 3661, 3699, 3673, 3652, 3740, 3693, 3681, 3667, 3638, 3671, 3680, 3681, 3755, 3806, 3663, 3679, 3750, 3649, 3694, 3682, 3748, 3679, 3808, 3883, 3714, 3745, 3710, 3679, 3778, 3762, 3733, 3787, 3796, 3877, 3860, 3807, 3678, 3668, 3650, 3636, 3968, 4026, 3690, 3628, 3739, 3784, 3623, 3668, 3723, 3881, 3739, 3624, 3600, 3667, 3644, 3645, 3719, 3688, 3695, 3843, 3831, 3709, 3739, 3663, 3838, 3977, 3878, 3686, 3713, 3760, 3669, 3792, 3837, 3682, 3664, 3916, 3729, 3705, 3744, 3706, 3787, 3762, 3810, 3683, 3820, 3719, 3697, 3832, 3668, 3687, 3820, 3823, 3810, 3764, 3682, 3793, 3605, 3774, 3726, 3944, 3800, 3963, 3810, 3955, 3928, 3900, 3801, 3888, 3895, 3736, 3721, 3799, 3870, 3928, 3780, 3744, 3912, 3740, 3782, 3840, 3984, 3955, 3847, 3792, 3922, 3783, 3813, 3824, 3696, 3795, 3943, 4015, 3917, 3968, 3938, 4052, 3908, 3814, 3879, 3761, 3826, 3981],
      "WindowCenter": [816.0, 815.0, 816.0, 815.0, 816.0, 815.0, 814.0, 815.0, 815.0, 814.0, 814.0, 815.0, 815.0, 815.0, 816.0, 816.0, 816.0, 814.0, 814.0, 811.0, 812.0, 813.0, 814.0, 817.0, 816.0, 813.0, 814.0, 813.0, 815.0, 816.0, 816.0, 814.0, 813.0, 813.0, 813.0, 812.0, 814.0, 813.0, 813.0, 813.0, 814.0, 815.0, 815.0, 814.0, 814.0, 813.0, 814.0, 814.0, 813.0, 813.0, 814.0, 814.0, 814.0, 814.0, 814.0, 813.0, 813.0, 814.0, 814.0, 814.0, 815.0, 816.0, 816.0, 815.0, 815.0, 815.0, 816.0, 815.0, 814.0, 813.0, 814.0, 814.0, 815.0, 814.0, 813.0, 812.0, 814.0, 814.0, 815.0, 813.0, 814.0, 814.0, 814.0, 813.0, 814.0, 814.0, 814.0, 811.0, 812.0, 813.0, 814.0, 815.0, 815.0, 815.0, 815.0, 815.0, 816.0, 815.0, 815.0, 816.0, 817.0, 817.0, 815.0, 815.0, 815.0, 814.0, 816.0, 816.0, 815.0, 814.0, 815.0, 815.0, 815.0, 814.0, 815.0, 815.0, 815.0, 815.0, 815.0, 815.0, 816.0, 815.0, 814.0, 813.0, 815.0, 815.0, 816.0, 816.0, 815.0, 816.0, 817.0, 816.0, 817.0, 817.0, 817.0, 816.0, 817.0, 818.0, 818.0, 817.0, 816.0, 814.0, 814.0, 814.0, 816.0, 815.0, 816.0, 816.0, 816.0, 816.0, 815.0, 815.0, 816.0, 814.0, 815.0, 815.0, 815.0, 817.0, 817.0, 815.0, 814.0, 813.0, 813.0, 814.0, 813.0, 813.0, 814.0, 815.0, 814.0, 814.0, 815.0, 814.0, 813.0, 815.0, 816.0, 816.0, 816.0, 814.0, 816.0, 816.0, 816.0, 815.0, 816.0, 816.0, 817.0, 818.0, 818.0, 815.0, 815.0, 818.0, 817.0, 813.0, 812.0, 813.0, 815.0, 813.0, 813.0, 813.0, 816.0, 816.0, 816.0, 816.0, 815.0, 815.0, 817.0, 816.0, 816.0, 817.0, 817.0, 817.0, 815.0, 816.0, 815.0, 814.0, 815.0, 818.0, 817.0, 816.0, 816.0, 818.0, 818.0, 818.0, 818.0, 817.0, 817.0, 817.0, 817.0, 815.0, 814.0, 814.0, 816.0, 814.0, 815.0, 815.0, 815.0, 816.0, 817.0, 816.0, 818.0, 817.0, 817.0, 815.0, 815.0, 818.0, 820.0, 819.0, 817.0, 818.0, 817.0, 817.0, 816.0, 815.0, 816.0, 814.0, 814.0, 815.0],
      "WindowWidth": [1764.0, 1762.0, 1762.0, 1760.0, 1762.0, 1760.0, 1757.0, 1759.0, 1760.0, 1758.0, 1758.0, 1759.0, 1761.0, 1761.0, 1763.0, 1761.0, 1763.0, 1759.0, 1757.0, 1751.0, 1753.0, 1754.0, 1758.0, 1764.0, 1762.0, 1755.0, 1757.0, 1753.0, 1760.0, 1764.0, 1762.0, 1758.0, 1756.0, 1756.0, 1755.0, 1753.0, 1757.0, 1755.0, 1754.0, 1755.0, 1757.0, 1759.0, 1760.0, 1756.0, 1757.0, 1755.0, 1757.0, 1757.0, 1756.0, 1755.0, 1759.0, 1757.0, 1758.0, 1756.0, 1757.0, 1756.0, 1756.0, 1759.0, 1759.0, 1759.0, 1761.0, 1763.0, 1763.0, 1761.0, 1760.0, 1759.0, 1763.0, 1760.0, 1758.0, 1756.0, 1758.0, 1759.0, 1760.0, 1757.0, 1756.0, 1753.0, 1757.0, 1757.0, 1760.0, 1756.0, 1757.0, 1757.0, 1759.0, 1755.0, 1758.0, 1757.0, 1757.0, 1750.0, 1753.0, 1756.0, 1757.0, 1762.0, 1760.0, 1760.0, 1760.0, 1759.0, 1761.0, 1760.0, 1758.0, 1763.0, 1766.0, 1764.0, 1760.0, 1761.0, 1759.0, 1756.0, 1761.0, 1762.0, 1759.0, 1756.0, 1758.0, 1758.0, 1759.0, 1758.0, 1759.0, 1759.0, 1761.0, 1760.0, 1759.0, 1759.0, 1763.0, 1761.0, 1759.0, 1756.0, 1759.0, 1761.0, 1763.0, 1762.0, 1760.0, 1762.0, 1766.0, 1762.0, 1765.0, 1764.0, 1764.0, 1762.0, 1766.0, 1769.0, 1769.0, 1766.0, 1761.0, 1757.0, 1758.0, 1758.0, 1761.0, 1761.0, 1763.0, 1762.0, 1764.0, 1761.0, 1760.0, 1759.0, 1762.0, 1757.0, 1761.0, 1760.0, 1760.0, 1764.0, 1766.0, 1760.0, 1755.0, 1755.0, 1754.0, 1757.0, 1755.0, 1753.0, 1757.0, 1758.0, 1758.0, 1758.0, 1759.0, 1756.0, 1756.0, 1759.0, 1762.0, 1762.0, 1764.0, 1757.0, 1762.0, 1764.0, 1764.0, 1761.0, 1763.0, 1763.0, 1765.0, 1767.0, 1767.0, 1760.0, 1759.0, 1768.0, 1766.0, 1756.0, 1751.0, 1753.0, 1759.0, 1754.0, 1753.0, 1752.0, 1760.0, 1761.0, 1761.0, 1761.0, 1759.0, 1759.0, 1763.0, 1761.0, 1762.0, 1763.0, 1763.0, 1763.0, 1759.0, 1763.0, 1758.0, 1759.0, 1761.0, 1769.0, 1764.0, 1762.0, 1764.0, 1767.0, 1767.0, 1769.0, 1769.0, 1765.0, 1764.0, 1764.0, 1764.0, 1761.0, 1758.0, 1757.0, 1762.0, 1758.0, 1761.0, 1760.0, 1760.0, 1763.0, 1765.0, 1764.0, 1768.0, 1765.0, 1764.0, 1761.0, 1761.0, 1769.0, 1774.0, 1771.0, 1768.0, 1768.0, 1767.0, 1766.0, 1762.0, 1760.0, 1762.0, 1758.0, 1757.0, 1760.0]
    },
    "slices": {}
  }
}