{
  "AcquisitionMatrixPE": 100,
  "AcquisitionNumber": 1,
  "AcquisitionTime": "15:28:6.372500",
  "BandwidthPerPixelPhaseEncode": 18.519,
  "BaseResolution": 100,
  "BodyPartExamined": "BRAIN",
  "ConsistencyInfo": "N4_VE11C_LATEST_20160120",
  "ConversionSoftware": "dcm2niix",
  "ConversionSoftwareVersion": "v1.0.20180622 GCC4.9.2",
  "DerivedVendorReportedEchoSpacing": 0.000539986,
  "DeviceSerialNumber": "166078",
  "DwellTime": 2.1e-06,
  "EchoTime": 0.034,
  "EchoTrainLength": 100,
  "EffectiveEchoSpacing": 0.000539986,
  "FlipAngle": 90,
  "ImageOrientationPatientDICOM": [1, 0, 0, 0, 0.966823, -0.255446],
  "ImageType": [
    "ORIGINAL",
    "PRIMARY",
    "M",
    "ND",
    "MOSAIC"
],
  "InPlanePhaseEncodingDirectionDICOM": "COL",
  "InstitutionAddress": "Street_StreetNo_Bei_Jing_District_CN_ZIP",
  "InstitutionName": "BeiJing_Normal_University",
  "InstitutionalDepartmentName": "Department",
  "MRAcquisitionType": "2D",
  "MagneticFieldStrength": 3,
  "Manufacturer": "Siemens",
  "ManufacturersModelName": "Prisma",
  "Modality": "MR",
  "MultibandAccelerationFactor": 3,
  "PartialFourier": 1,
  "PatientPosition": "HFS",
  "PercentPhaseFOV": 100,
  "PhaseEncodingDirection": "j-",
  "PhaseEncodingSteps": 100,
  "PhaseResolution": 1,
  "PixelBandwidth": 2380,
  "ProcedureStepDescription": "BNU_P2018_64CH_Zhen.ZongLei",
  "ProtocolName": "bold_100x100_s3_2x2x2_static_256",
  "PulseSequenceDetails": "%SiemensSeq%_ep2d_bold",
  "ReceiveCoilActiveElements": "HC1-7;NC1",
  "ReceiveCoilName": "HeadNeck_64",
  "ReconMatrixPE": 100,
  "RepetitionTime": 2,
  "SAR": 0.0860847,
  "ScanOptions": "FS",
  "ScanningSequence": "EP",
  "SequenceName": "_epfid2d1_100",
  "SequenceVariant": "SK",
  "SeriesDescription": "bold_100x100_s3_2x2x2_static_256",
  "SeriesNumber": 6,
  "ShimSetting": [-5471, -11503, -1236, 217, -150, -424, -93, 13],
  "SliceThickness": 2,
  "SliceTiming": [1.485, 0, 0.99, 0.0825, 1.0725, 0.165, 1.155, 0.2475, 1.2375, 0.33, 1.32, 0.4125, 1.4025, 0.5775, 1.5675, 0.66, 1.65, 0.7425, 1.7325, 0.825, 1.815, 0.9075, 1.8975, 0.495, 1.485, 0, 0.99, 0.0825, 1.0725, 0.165, 1.155, 0.2475, 1.2375, 0.33, 1.32, 0.4125, 1.4025, 0.5775, 1.5675, 0.66, 1.65, 0.7425, 1.7325, 0.825, 1.815, 0.9075, 1.8975, 0.495, 1.485, 0, 0.99, 0.0825, 1.0725, 0.165, 1.155, 0.2475, 1.2375, 0.33, 1.32, 0.4125, 1.4025, 0.5775, 1.5675, 0.66, 1.65, 0.7425, 1.7325, 0.825, 1.815, 0.9075, 1.8975, 0.495],
  "SoftwareVersions": "syngo_MR_E11",
  "SpacingBetweenSlices": 2,
  "StationName": "AWP166078",
  "TaskName": "naturalvision",
  "TotalReadoutTime": 0.0534586,
  "TxRefAmp": 247.435,
  "dcmmeta_affine": [
    [-2.0, 0.0, 0.0, 102.03389739990234],
    [0.0, 1.93364679813385, -0.5108914971351624, -74.67015838623047],
    [0.0, 0.5108914971351624, 1.9336466789245605, -95.6539306640625],
    [0.0, 0.0, 0.0, 1.0]
],
  "dcmmeta_reorient_transform": [
    [0.0, -1.0, 0.0, 99.0],
    [1.0, 0.0, 0.0, 0.0],
    [0.0, 0.0, 1.0, 0.0],
    [0.0, 0.0, 0.0, 1.0]
],
  "dcmmeta_shape": [100, 100, 72, 256],
  "dcmmeta_slice_dim": 2,
  "dcmmeta_version": 0.6,
  "global": {
    "const": {
      "AcquisitionMatrix": [100, 0, 0, 100],
      "AngioFlag": "N",
      "BitsAllocated": 16,
      "BitsStored": 12,
      "BodyPartExamined": "BRAIN",
      "Columns": 900,
      "EchoNumbers": 1,
      "EchoTime": 34.0,
      "EchoTrainLength": 100,
      "FlipAngle": 90.0,
      "HighBit": 11,
      "ImageOrientationPatient": [1.0, 0.0, 0.0, 0.0, 0.96682339000573, -0.2554457526322],
      "ImagePositionPatient": [-902.03389835358, -890.21958799246, 159.28093048175],
      "ImageType": [
        "ORIGINAL",
        "PRIMARY",
        "M",
        "ND",
        "MOSAIC"
],
      "ImagedNucleus": "1H",
      "ImagingFrequency": 123.257731,
      "InPlanePhaseEncodingDirection": "COL",
      "MRAcquisitionType": "2D",
      "MagneticFieldStrength": 3.0,
      "Manufacturer": "SIEMENS",
      "ManufacturerModelName": "Prisma",
      "Modality": "MR",
      "NumberOfAverages": 1.0,
      "NumberOfPhaseEncodingSteps": 100,
      "PercentPhaseFieldOfView": 100.0,
      "PercentSampling": 100.0,
      "PerformedProcedureStepStartTime": "145716.168000",
      "PhotometricInterpretation": "MONOCHROME2",
      "PixelBandwidth": 2380.0,
      "PixelRepresentation": 0,
      "PixelSpacing": [2.0, 2.0],
      "ProtocolName": "bold_100x100_s3_2x2x2_static_256",
      "RepetitionTime": 2000.0,
      "Rows": 900,
      "SAR": 0.08608472486551,
      "SamplesPerPixel": 1,
      "ScanOptions": "FS",
      "ScanningSequence": "EP",
      "SequenceName": "*epfid2d1_100",
      "SequenceVariant": "SK",
      "SeriesDescription": "bold_100x100_s3_2x2x2_static_256",
      "SeriesNumber": 6,
      "SeriesTime": "152808.613000",
      "SliceLocation": -73.406283491006,
      "SliceThickness": 2.0,
      "SmallestImagePixelValue": 0,
      "SoftwareVersions": "syngo MR E11",
      "SpacingBetweenSlices": 1.9999999458571,
      "SpecificCharacterSet": "ISO_IR 100",
      "StudyID": "1",
      "StudyTime": "145716.108000",
      "TransmitCoilName": "Body",
      "VariableFlipAngleFlag": "N",
      "WindowCenterWidthExplanation": "Algo1",
      "dBdt": 0.0},
    "slices": {}
  },
  "time": {
    "samples": {
      "AcquisitionNumber": [1, 2, 3, 4, 5, 6, 7, 8, 9, 10, 11, 12, 13, 14, 15, 16, 17, 18, 19, 20, 21, 22, 23, 24, 25, 26, 27, 28, 29, 30, 31, 32, 33, 34, 35, 36, 37, 38, 39, 40, 41, 42, 43, 44, 45, 46, 47, 48, 49, 50, 51, 52, 53, 54, 55, 56, 57, 58, 59, 60, 61, 62, 63, 64, 65, 66, 67, 68, 69, 70, 71, 72, 73, 74, 75, 76, 77, 78, 79, 80, 81, 82, 83, 84, 85, 86, 87, 88, 89, 90, 91, 92, 93, 94, 95, 96, 97, 98, 99, 100, 101, 102, 103, 104, 105, 106, 107, 108, 109, 110, 111, 112, 113, 114, 115, 116, 117, 118, 119, 120, 121, 122, 123, 124, 125, 126, 127, 128, 129, 130, 131, 132, 133, 134, 135, 136, 137, 138, 139, 140, 141, 142, 143, 144, 145, 146, 147, 148, 149, 150, 151, 152, 153, 154, 155, 156, 157, 158, 159, 160, 161, 162, 163, 164, 165, 166, 167, 168, 169, 170, 171, 172, 173, 174, 175, 176, 177, 178, 179, 180, 181, 182, 183, 184, 185, 186, 187, 188, 189, 190, 191, 192, 193, 194, 195, 196, 197, 198, 199, 200, 201, 202, 203, 204, 205, 206, 207, 208, 209, 210, 211, 212, 213, 214, 215, 216, 217, 218, 219, 220, 221, 222, 223, 224, 225, 226, 227, 228, 229, 230, 231, 232, 233, 234, 235, 236, 237, 238, 239, 240, 241, 242, 243, 244, 245, 246, 247, 248, 249, 250, 251, 252, 253, 254, 255, 256],
      "AcquisitionTime": ["152806.372500", "152808.372500", "152810.372500", "152812.372500", "152814.372500", "152816.372500", "152818.372500", "152820.372500", "152822.372500", "152824.372500", "152826.372500", "152828.372500", "152830.372500", "152832.372500", "152834.372500", "152836.372500", "152838.372500", "152840.372500", "152842.372500", "152844.372500", "152846.372500", "152848.372500", "152850.372500", "152852.372500", "152854.372500", "152856.372500", "152858.372500", "152900.372500", "152902.372500", "152904.372500", "152906.372500", "152908.372500", "152910.372500", "152912.372500", "152914.372500", "152916.372500", "152918.372500", "152920.372500", "152922.372500", "152924.372500", "152926.372500", "152928.372500", "152930.372500", "152932.372500", "152934.372500", "152936.372500", "152938.372500", "152940.372500", "152942.372500", "152944.372500", "152946.372500", "152948.372500", "152950.372500", "152952.372500", "152954.372500", "152956.372500", "152958.372500", "153000.372500", "153002.372500", "153004.372500", "153006.372500", "153008.372500", "153010.372500", "153012.372500", "153014.372500", "153016.372500", "153018.372500", "153020.372500", "153022.372500", "153024.372500", "153026.372500", "153028.372500", "153030.372500", "153032.372500", "153034.372500", "153036.372500", "153038.372500", "153040.372500", "153042.372500", "153044.372500", "153046.372500", "153048.372500", "153050.372500", "153052.372500", "153054.372500", "153056.372500", "153058.372500", "153100.372500", "153102.372500", "153104.372500", "153106.372500", "153108.372500", "153110.372500", "153112.372500", "153114.372500", "153116.372500", "153118.372500", "153120.372500", "153122.372500", "153124.372500", "153126.372500", "153128.372500", "153130.372500", "153132.372500", "153134.372500", "153136.372500", "153138.372500", "153140.372500", "153142.372500", "153144.372500", "153146.372500", "153148.372500", "153150.372500", "153152.372500", "153154.372500", "153156.372500", "153158.372500", "153200.372500", "153202.372500", "153204.372500", "153206.372500", "153208.372500", "153210.372500", "153212.372500", "153214.372500", "153216.372500", "153218.372500", "153220.372500", "153222.372500", "153224.372500", "153226.372500", "153228.372500", "153230.372500", "153232.372500", "153234.372500", "153236.372500", "153238.372500", "153240.372500", "153242.372500", "153244.372500", "153246.372500", "153248.372500", "153250.372500", "153252.372500", "153254.372500", "153256.372500", "153258.372500", "153300.372500", "153302.372500", "153304.372500", "153306.372500", "153308.372500", "153310.372500", "153312.372500", "153314.372500", "153316.372500", "153318.372500", "153320.372500", "153322.372500", "153324.372500", "153326.372500", "153328.372500", "153330.372500", "153332.372500", "153334.372500", "153336.372500", "153338.372500", "153340.372500", "153342.372500", "153344.372500", "153346.372500", "153348.372500", "153350.372500", "153352.372500", "153354.372500", "153356.372500", "153358.372500", "153400.372500", "153402.372500", "153404.372500", "153406.372500", "153408.372500", "153410.372500", "153412.372500", "153414.372500", "153416.372500", "153418.372500", "153420.372500", "153422.372500", "153424.372500", "153426.372500", "153428.372500", "153430.372500", "153432.372500", "153434.372500", "153436.372500", "153438.372500", "153440.372500", "153442.372500", "153444.372500", "153446.372500", "153448.372500", "153450.372500", "153452.372500", "153454.372500", "153456.372500", "153458.372500", "153500.372500", "153502.372500", "153504.372500", "153506.372500", "153508.372500", "153510.372500", "153512.372500", "153514.372500", "153516.372500", "153518.372500", "153520.372500", "153522.372500", "153524.372500", "153526.372500", "153528.372500", "153530.372500", "153532.372500", "153534.372500", "153536.372500", "153538.372500", "153540.372500", "153542.372500", "153544.372500", "153546.372500", "153548.372500", "153550.372500", "153552.372500", "153554.372500", "153556.372500", "153558.372500", "153600.372500", "153602.372500", "153604.372500", "153606.372500", "153608.372500", "153610.372500", "153612.372500", "153614.372500", "153616.372500", "153618.372500", "153620.372500", "153622.372500", "153624.372500", "153626.372500", "153628.372500", "153630.372500", "153632.372500", "153634.372500", "153636.372500"],
      "ContentTime": ["152808.617000", "152810.112000", "152812.112000", "152814.112000", "152816.113000", "152818.114000", "152820.113000", "152822.113000", "152824.112000", "152826.112000", "152828.112000", "152830.112000", "152832.113000", "152834.114000", "152836.114000", "152838.112000", "152840.112000", "152842.112000", "152844.112000", "152846.112000", "152848.112000", "152850.112000", "152852.113000", "152854.113000", "152856.112000", "152858.113000", "152900.113000", "152902.113000", "152904.112000", "152906.113000", "152908.113000", "152910.114000", "152912.112000", "152914.112000", "152916.113000", "152918.112000", "152920.113000", "152922.112000", "152924.112000", "152926.113000", "152928.113000", "152930.112000", "152932.113000", "152934.112000", "152936.112000", "152938.113000", "152940.112000", "152942.112000", "152944.114000", "152946.113000", "152948.112000", "152950.113000", "152952.113000", "152954.113000", "152956.112000", "152958.112000", "153000.113000", "153002.114000", "153004.113000", "153006.112000", "153008.113000", "153010.113000", "153012.113000", "153014.112000", "153016.113000", "153018.113000", "153020.114000", "153022.113000", "153024.112000", "153026.112000", "153028.112000", "153030.112000", "153032.113000", "153034.113000", "153036.113000", "153038.114000", "153040.112000", "153042.113000", "153044.113000", "153046.113000", "153048.113000", "153050.112000", "153052.113000", "153054.113000", "153056.113000", "153058.113000", "153100.112000", "153102.113000", "153104.113000", "153106.112000", "153108.112000", "153110.112000", "153112.114000", "153114.112000", "153116.113000", "153118.113000", "153120.112000", "153122.112000", "153124.112000", "153126.112000", "153128.113000", "153130.113000", "153132.112000", "153134.112000", "153136.113000", "153138.113000", "153140.113000", "153142.112000", "153144.112000", "153146.114000", "153148.114000", "153150.112000", "153152.113000", "153154.112000", "153156.113000", "153158.112000", "153200.112000", "153202.113000", "153204.114000", "153206.114000", "153208.113000", "153210.112000", "153212.112000", "153214.113000", "153216.113000", "153218.113000", "153220.112000", "153222.113000", "153224.112000", "153226.112000", "153228.113000", "153230.112000", "153232.113000", "153234.112000", "153236.113000", "153238.113000", "153240.114000", "153242.112000", "153244.112000", "153246.112000", "153248.113000", "153250.113000", "153252.113000", "153254.113000", "153256.113000", "153258.113000", "153300.112000", "153302.112000", "153304.112000", "153306.112000", "153308.112000", "153310.112000", "153312.112000", "153314.113000", "153316.114000", "153318.112000", "153320.112000", "153322.113000", "153324.112000", "153326.113000", "153328.113000", "153330.112000", "153332.113000", "153334.113000", "153336.113000", "153338.113000", "153340.113000", "153342.113000", "153344.113000", "153346.112000", "153348.114000", "153350.113000", "153352.113000", "153354.113000", "153356.113000", "153358.113000", "153400.113000", "153402.112000", "153404.112000", "153406.114000", "153408.113000", "153410.113000", "153412.113000", "153414.113000", "153416.113000", "153418.112000", "153420.112000", "153422.113000", "153424.114000", "153426.113000", "153428.112000", "153430.112000", "153432.112000", "153434.113000", "153436.112000", "153438.113000", "153440.113000", "153442.114000", "153444.113000", "153446.113000", "153448.113000", "153450.113000", "153452.113000", "153454.113000", "153456.112000", "153458.114000", "153500.114000", "153502.113000", "153504.112000", "153506.112000", "153508.112000", "153510.112000", "153512.113000", "153514.113000", "153516.114000", "153518.114000", "153520.113000", "153522.113000", "153524.113000", "153526.113000", "153528.113000", "153530.113000", "153532.113000", "153534.113000", "153536.113000", "153538.113000", "153540.113000", "153542.113000", "153544.112000", "153546.113000", "153548.112000", "153550.128000", "153552.113000", "153554.113000", "153556.113000", "153558.112000", "153600.113000", "153602.112000", "153604.112000", "153606.113000", "153608.114000", "153610.114000", "153612.113000", "153614.112000", "153616.112000", "153618.112000", "153620.113000", "153622.113000", "153624.112000", "153626.114000", "153628.114000", "153630.113000", "153632.112000", "153634.113000", "153636.113000", "153637.935000"],
      "InstanceCreationTime": ["152808.617000", "152810.112000", "152812.112000", "152814.112000", "152816.113000", "152818.114000", "152820.113000", "152822.113000", "152824.112000", "152826.112000", "152828.112000", "152830.112000", "152832.113000", "152834.114000", "152836.114000", "152838.112000", "152840.112000", "152842.112000", "152844.112000", "152846.112000", "152848.112000", "152850.112000", "152852.113000", "152854.113000", "152856.112000", "152858.113000", "152900.113000", "152902.113000", "152904.112000", "152906.113000", "152908.113000", "152910.114000", "152912.112000", "152914.112000", "152916.113000", "152918.112000", "152920.113000", "152922.112000", "152924.112000", "152926.113000", "152928.113000", "152930.112000", "152932.113000", "152934.112000", "152936.112000", "152938.113000", "152940.112000", "152942.112000", "152944.114000", "152946.113000", "152948.112000", "152950.113000", "152952.113000", "152954.113000", "152956.112000", "152958.112000", "153000.113000", "153002.114000", "153004.113000", "153006.112000", "153008.113000", "153010.113000", "153012.113000", "153014.112000", "153016.113000", "153018.113000", "153020.114000", "153022.113000", "153024.112000", "153026.112000", "153028.112000", "153030.112000", "153032.113000", "153034.113000", "153036.113000", "153038.114000", "153040.112000", "153042.113000", "153044.113000", "153046.113000", "153048.113000", "153050.112000", "153052.113000", "153054.113000", "153056.113000", "153058.113000", "153100.112000", "153102.113000", "153104.113000", "153106.112000", "153108.112000", "153110.112000", "153112.114000", "153114.112000", "153116.113000", "153118.113000", "153120.112000", "153122.112000", "153124.112000", "153126.112000", "153128.113000", "153130.113000", "153132.112000", "153134.112000", "153136.113000", "153138.113000", "153140.113000", "153142.112000", "153144.112000", "153146.114000", "153148.114000", "153150.112000", "153152.113000", "153154.112000", "153156.113000", "153158.112000", "153200.112000", "153202.113000", "153204.114000", "153206.114000", "153208.113000", "153210.112000", "153212.112000", "153214.113000", "153216.113000", "153218.113000", "153220.112000", "153222.113000", "153224.112000", "153226.112000", "153228.113000", "153230.112000", "153232.113000", "153234.112000", "153236.113000", "153238.113000", "153240.114000", "153242.112000", "153244.112000", "153246.112000", "153248.113000", "153250.113000", "153252.113000", "153254.113000", "153256.113000", "153258.113000", "153300.112000", "153302.112000", "153304.112000", "153306.112000", "153308.112000", "153310.112000", "153312.112000", "153314.113000", "153316.114000", "153318.112000", "153320.112000", "153322.113000", "153324.112000", "153326.113000", "153328.113000", "153330.112000", "153332.113000", "153334.113000", "153336.113000", "153338.113000", "153340.113000", "153342.113000", "153344.113000", "153346.112000", "153348.114000", "153350.113000", "153352.113000", "153354.113000", "153356.113000", "153358.113000", "153400.113000", "153402.112000", "153404.112000", "153406.114000", "153408.113000", "153410.113000", "153412.113000", "153414.113000", "153416.113000", "153418.112000", "153420.112000", "153422.113000", "153424.114000", "153426.113000", "153428.112000", "153430.112000", "153432.112000", "153434.113000", "153436.112000", "153438.113000", "153440.113000", "153442.114000", "153444.113000", "153446.113000", "153448.113000", "153450.113000", "153452.113000", "153454.113000", "153456.112000", "153458.114000", "153500.114000", "153502.113000", "153504.112000", "153506.112000", "153508.112000", "153510.112000", "153512.113000", "153514.113000", "153516.114000", "153518.114000", "153520.113000", "153522.113000", "153524.113000", "153526.113000", "153528.113000", "153530.113000", "153532.113000", "153534.113000", "153536.113000", "153538.113000", "153540.113000", "153542.113000", "153544.112000", "153546.113000", "153548.112000", "153550.128000", "153552.113000", "153554.113000", "153556.113000", "153558.112000", "153600.113000", "153602.112000", "153604.112000", "153606.113000", "153608.114000", "153610.114000", "153612.113000", "153614.112000", "153616.112000", "153618.112000", "153620.113000", "153622.113000", "153624.112000", "153626.114000", "153628.114000", "153630.113000", "153632.112000", "153634.113000", "153636.113000", "153637.935000"],
      "InstanceNumber": [1, 2, 3, 4, 5, 6, 7, 8, 9, 10, 11, 12, 13, 14, 15, 16, 17, 18, 19, 20, 21, 22, 23, 24, 25, 26, 27, 28, 29, 30, 31, 32, 33, 34, 35, 36, 37, 38, 39, 40, 41, 42, 43, 44, 45, 46, 47, 48, 49, 50, 51, 52, 53, 54, 55, 56, 57, 58, 59, 60, 61, 62, 63, 64, 65, 66, 67, 68, 69, 70, 71, 72, 73, 74, 75, 76, 77, 78, 79, 80, 81, 82, 83, 84, 85, 86, 87, 88, 89, 90, 91, 92, 93, 94, 95, 96, 97, 98, 99, 100, 101, 102, 103, 104, 105, 106, 107, 108, 109, 110, 111, 112, 113, 114, 115, 116, 117, 118, 119, 120, 121, 122, 123, 124, 125, 126, 127, 128, 129, 130, 131, 132, 133, 134, 135, 136, 137, 138, 139, 140, 141, 142, 143, 144, 145, 146, 147, 148, 149, 150, 151, 152, 153, 154, 155, 156, 157, 158, 159, 160, 161, 162, 163, 164, 165, 166, 167, 168, 169, 170, 171, 172, 173, 174, 175, 176, 177, 178, 179, 180, 181, 182, 183, 184, 185, 186, 187, 188, 189, 190, 191, 192, 193, 194, 195, 196, 197, 198, 199, 200, 201, 202, 203, 204, 205, 206, 207, 208, 209, 210, 211, 212, 213, 214, 215, 216, 217, 218, 219, 220, 221, 222, 223, 224, 225, 226, 227, 228, 229, 230, 231, 232, 233, 234, 235, 236, 237, 238, 239, 240, 241, 242, 243, 244, 245, 246, 247, 248, 249, 250, 251, 252, 253, 254, 255, 256],
      "LargestImagePixelValue": [3850, 3776, 3834, 3796, 3756, 3755, 3722, 3700, 3696, 3727, 3728, 3763, 3770, 3764, 3754, 3777, 3746, 3806, 3798, 3784, 3742, 3773, 3787, 3794, 3765, 3770, 3815, 3831, 3819, 3816, 3795, 3828, 3784, 3834, 3771, 3809, 3785, 3782, 3817, 3791, 3776, 3784, 3745, 3776, 3800, 3790, 3837, 3808, 3781, 3781, 3768, 3714, 3745, 3793, 3765, 3745, 3778, 3777, 3769, 3761, 3717, 3687, 3761, 3732, 3729, 3694, 3687, 3713, 3711, 3731, 3724, 3681, 3745, 3745, 3761, 3740, 3720, 3705, 3742, 3758, 3751, 3735, 3742, 3792, 3732, 3725, 3714, 3736, 3740, 3745, 3732, 3690, 3733, 3731, 3696, 3705, 3684, 3683, 3672, 3662, 3732, 3712, 3717, 3671, 3642, 3678, 3741, 3697, 3689, 3645, 3666, 3709, 3695, 3696, 3703, 3695, 3743, 3714, 3790, 3699, 3741, 3720, 3700, 3650, 3725, 3698, 3716, 3705, 3735, 3765, 3796, 3795, 3805, 3769, 3811, 3781, 3730, 3733, 3757, 3778, 3780, 3783, 3766, 3768, 3755, 3761, 3781, 3784, 3746, 3769, 3764, 3786, 3741, 3730, 3773, 3704, 3667, 3669, 3691, 3636, 3632, 3653, 3664, 3660, 3664, 3660, 3678, 3675, 3664, 3641, 3790, 3869, 3646, 3660, 3731, 3605, 3605, 3600, 3634, 3759, 3613, 3628, 3822, 3588, 3562, 3589, 3565, 3645, 3619, 3574, 3576, 3560, 3573, 3554, 3533, 3504, 3533, 3517, 3663, 3498, 3494, 3510, 3572, 3661, 3514, 3579, 3511, 3536, 3593, 3567, 3507, 3574, 3521, 3549, 3591, 3691, 3538, 3548, 3517, 3536, 3550, 3501, 3604, 3626, 3544, 3623, 3549, 3576, 3531, 3577, 3521, 3544, 3490, 3498, 3532, 3565, 3572, 3529, 3547, 3516, 3515, 3601, 3592, 3518, 3590, 3495, 3497, 3522, 3591, 3494, 3496, 3495, 3544, 3516, 3480, 3465],
      "WindowCenter": [816.0, 815.0, 814.0, 813.0, 815.0, 813.0, 811.0, 810.0, 811.0, 813.0, 815.0, 815.0, 813.0, 811.0, 811.0, 812.0, 811.0, 810.0, 810.0, 811.0, 812.0, 814.0, 815.0, 814.0, 813.0, 814.0, 815.0, 815.0, 812.0, 812.0, 813.0, 812.0, 811.0, 813.0, 815.0, 816.0, 815.0, 814.0, 814.0, 813.0, 814.0, 814.0, 813.0, 811.0, 810.0, 810.0, 811.0, 811.0, 810.0, 811.0, 811.0, 811.0, 811.0, 812.0, 813.0, 813.0, 814.0, 812.0, 813.0, 814.0, 815.0, 811.0, 810.0, 810.0, 812.0, 814.0, 814.0, 814.0, 812.0, 813.0, 814.0, 812.0, 811.0, 811.0, 812.0, 812.0, 813.0, 812.0, 813.0, 814.0, 814.0, 812.0, 812.0, 812.0, 812.0, 814.0, 815.0, 814.0, 812.0, 812.0, 812.0, 812.0, 812.0, 812.0, 811.0, 811.0, 812.0, 813.0, 812.0, 812.0, 812.0, 810.0, 811.0, 812.0, 811.0, 810.0, 811.0, 812.0, 812.0, 812.0, 812.0, 811.0, 811.0, 811.0, 811.0, 811.0, 812.0, 813.0, 814.0, 813.0, 812.0, 814.0, 816.0, 814.0, 812.0, 811.0, 812.0, 813.0, 813.0, 811.0, 810.0, 810.0, 811.0, 811.0, 812.0, 813.0, 813.0, 813.0, 814.0, 814.0, 814.0, 813.0, 814.0, 814.0, 814.0, 815.0, 816.0, 815.0, 816.0, 817.0, 817.0, 815.0, 814.0, 814.0, 814.0, 812.0, 812.0, 813.0, 817.0, 817.0, 814.0, 814.0, 814.0, 813.0, 813.0, 814.0, 817.0, 816.0, 814.0, 812.0, 813.0, 812.0, 812.0, 813.0, 813.0, 814.0, 816.0, 815.0, 813.0, 814.0, 814.0, 814.0, 814.0, 812.0, 813.0, 813.0, 811.0, 811.0, 812.0, 815.0, 815.0, 814.0, 814.0, 814.0, 815.0, 814.0, 813.0, 812.0, 812.0, 814.0, 816.0, 816.0, 813.0, 813.0, 814.0, 813.0, 813.0, 813.0, 814.0, 811.0, 811.0, 814.0, 814.0, 813.0, 813.0, 812.0, 814.0, 815.0, 814.0, 812.0, 812.0, 813.0, 815.0, 815.0, 813.0, 815.0, 816.0, 814.0, 812.0, 812.0, 813.0, 813.0, 812.0, 814.0, 816.0, 814.0, 812.0, 813.0, 815.0, 813.0, 811.0, 811.0, 811.0, 812.0, 814.0, 812.0, 811.0, 810.0, 812.0, 814.0, 815.0, 813.0, 812.0, 810.0, 812.0, 811.0],
      "WindowWidth": [1765.0, 1762.0, 1760.0, 1758.0, 1762.0, 1759.0, 1753.0, 1749.0, 1752.0, 1758.0, 1764.0, 1763.0, 1758.0, 1754.0, 1753.0, 1754.0, 1753.0, 1750.0, 1752.0, 1754.0, 1757.0, 1760.0, 1763.0, 1761.0, 1759.0, 1760.0, 1765.0, 1763.0, 1756.0, 1756.0, 1758.0, 1756.0, 1753.0, 1758.0, 1764.0, 1766.0, 1762.0, 1760.0, 1760.0, 1758.0, 1760.0, 1762.0, 1757.0, 1752.0, 1750.0, 1750.0, 1754.0, 1753.0, 1751.0, 1752.0, 1753.0, 1752.0, 1753.0, 1755.0, 1757.0, 1758.0, 1759.0, 1756.0, 1757.0, 1760.0, 1762.0, 1753.0, 1749.0, 1750.0, 1755.0, 1759.0, 1761.0, 1759.0, 1755.0, 1757.0, 1759.0, 1756.0, 1753.0, 1752.0, 1755.0, 1756.0, 1757.0, 1756.0, 1758.0, 1760.0, 1759.0, 1756.0, 1755.0, 1754.0, 1754.0, 1759.0, 1762.0, 1759.0, 1755.0, 1754.0, 1755.0, 1756.0, 1756.0, 1756.0, 1752.0, 1752.0, 1754.0, 1756.0, 1755.0, 1755.0, 1755.0, 1751.0, 1753.0, 1755.0, 1751.0, 1749.0, 1751.0, 1754.0, 1756.0, 1756.0, 1754.0, 1753.0, 1751.0, 1752.0, 1752.0, 1751.0, 1756.0, 1758.0, 1760.0, 1758.0, 1755.0, 1761.0, 1766.0, 1760.0, 1754.0, 1752.0, 1756.0, 1757.0, 1757.0, 1753.0, 1750.0, 1749.0, 1753.0, 1753.0, 1756.0, 1757.0, 1758.0, 1759.0, 1761.0, 1761.0, 1760.0, 1759.0, 1759.0, 1759.0, 1760.0, 1762.0, 1765.0, 1764.0, 1767.0, 1769.0, 1767.0, 1763.0, 1761.0, 1759.0, 1759.0, 1755.0, 1754.0, 1757.0, 1768.0, 1768.0, 1761.0, 1760.0, 1760.0, 1758.0, 1758.0, 1761.0, 1768.0, 1767.0, 1761.0, 1755.0, 1757.0, 1757.0, 1755.0, 1757.0, 1759.0, 1761.0, 1764.0, 1761.0, 1757.0, 1759.0, 1759.0, 1760.0, 1759.0, 1754.0, 1756.0, 1757.0, 1751.0, 1753.0, 1756.0, 1761.0, 1762.0, 1758.0, 1759.0, 1760.0, 1761.0, 1758.0, 1756.0, 1754.0, 1755.0, 1759.0, 1765.0, 1764.0, 1757.0, 1756.0, 1758.0, 1758.0, 1757.0, 1758.0, 1758.0, 1751.0, 1750.0, 1758.0, 1760.0, 1758.0, 1756.0, 1756.0, 1759.0, 1762.0, 1759.0, 1754.0, 1753.0, 1757.0, 1762.0, 1761.0, 1758.0, 1763.0, 1764.0, 1759.0, 1753.0, 1753.0, 1756.0, 1758.0, 1755.0, 1760.0, 1766.0, 1760.0, 1755.0, 1756.0, 1761.0, 1757.0, 1751.0, 1750.0, 1752.0, 1754.0, 1759.0, 1754.0, 1750.0, 1749.0, 1754.0, 1759.0, 1762.0, 1759.0, 1754.0, 1748.0, 1753.0, 1752.0]
    },
    "slices": {}
  }
}