{
 "AcquisitionMatrixPE": 100,
 "AcquisitionNumber": 1,
 "AcquisitionTime": "15:49:9.685000",
 "BandwidthPerPixelPhaseEncode": 18.519,
 "BaseResolution": 100,
 "BodyPartExamined": "BRAIN",
 "ConsistencyInfo": "N4_VE11C_LATEST_20160120",
 "ConversionSoftware": "dcm2niix",
 "ConversionSoftwareVersion": "v1.0.20180622 GCC4.9.2",
 "DerivedVendorReportedEchoSpacing": 0.000539986,
 "DeviceSerialNumber": "166078",
 "DwellTime": 2.1e-06,
 "EchoTime": 0.034,
 "EchoTrainLength": 100,
 "EffectiveEchoSpacing": 0.000539986,
 "FlipAngle": 90,
 "ImageOrientationPatientDICOM": [
  1,
  0,
  0,
  0,
  0.966823,
  -0.255446
 ],
 "ImageType": [
  "ORIGINAL",
  "PRIMARY",
  "M",
  "ND",
  "MOSAIC"
 ],
 "InPlanePhaseEncodingDirectionDICOM": "COL",
 "InstitutionAddress": "Street_StreetNo_Bei_Jing_District_CN_ZIP",
 "InstitutionName": "BeiJing_Normal_University",
 "InstitutionalDepartmentName": "Department",
 "MRAcquisitionType": "2D",
 "MagneticFieldStrength": 3,
 "Manufacturer": "Siemens",
 "ManufacturersModelName": "Prisma",
 "Modality": "MR",
 "MultibandAccelerationFactor": 3,
 "PartialFourier": 1,
 "PatientPosition": "HFS",
 "PercentPhaseFOV": 100,
 "PhaseEncodingDirection": "j-",
 "PhaseEncodingSteps": 100,
 "PhaseResolution": 1,
 "PixelBandwidth": 2380,
 "ProcedureStepDescription": "BNU_P2018_64CH_Zhen.ZongLei",
 "ProtocolName": "bold_100x100_s3_2x2x2_static_256",
 "PulseSequenceDetails": "%SiemensSeq%_ep2d_bold",
 "ReceiveCoilActiveElements": "HC1-7;NC1",
 "ReceiveCoilName": "HeadNeck_64",
 "ReconMatrixPE": 100,
 "RepetitionTime": 2,
 "SAR": 0.0860847,
 "ScanOptions": "FS",
 "ScanningSequence": "EP",
 "SequenceName": "_epfid2d1_100",
 "SequenceVariant": "SK",
 "SeriesDescription": "bold_100x100_s3_2x2x2_static_256",
 "SeriesNumber": 10,
 "ShimSetting": [
  -5471,
  -11503,
  -1236,
  217,
  -150,
  -424,
  -93,
  13
 ],
 "SliceThickness": 2,
 "SliceTiming": [
  1.485,
  0,
  0.99,
  0.0825,
  1.0725,
  0.165,
  1.155,
  0.2475,
  1.2375,
  0.33,
  1.32,
  0.4125,
  1.4025,
  0.5775,
  1.5675,
  0.66,
  1.65,
  0.7425,
  1.7325,
  0.825,
  1.815,
  0.9075,
  1.8975,
  0.495,
  1.485,
  0,
  0.99,
  0.0825,
  1.0725,
  0.165,
  1.155,
  0.2475,
  1.2375,
  0.33,
  1.32,
  0.4125,
  1.4025,
  0.5775,
  1.5675,
  0.66,
  1.65,
  0.7425,
  1.7325,
  0.825,
  1.815,
  0.9075,
  1.8975,
  0.495,
  1.485,
  0,
  0.99,
  0.0825,
  1.0725,
  0.165,
  1.155,
  0.2475,
  1.2375,
  0.33,
  1.32,
  0.4125,
  1.4025,
  0.5775,
  1.5675,
  0.66,
  1.65,
  0.7425,
  1.7325,
  0.825,
  1.815,
  0.9075,
  1.8975,
  0.495
 ],
 "SoftwareVersions": "syngo_MR_E11",
 "SpacingBetweenSlices": 2,
 "StationName": "AWP166078",
 "TaskName": "imagenet",
 "TotalReadoutTime": 0.0534586,
 "TxRefAmp": 247.435,
 "dcmmeta_affine": [
  [
   -2.0,
   0.0,
   0.0,
   102.03389739990234
  ],
  [
   0.0,
   1.93364679813385,
   -0.5108914971351624,
   -74.67015838623047
  ],
  [
   0.0,
   0.5108914971351624,
   1.9336466789245605,
   -95.6539306640625
  ],
  [
   0.0,
   0.0,
   0.0,
   1.0
  ]
 ],
 "dcmmeta_reorient_transform": [
  [
   0.0,
   -1.0,
   0.0,
   99.0
  ],
  [
   1.0,
   0.0,
   0.0,
   0.0
  ],
  [
   0.0,
   0.0,
   1.0,
   0.0
  ],
  [
   0.0,
   0.0,
   0.0,
   1.0
  ]
 ],
 "dcmmeta_shape": [
  100,
  100,
  72,
  256
 ],
 "dcmmeta_slice_dim": 2,
 "dcmmeta_version": 0.6,
 "global": {
  "const": {
   "AcquisitionMatrix": [
    100,
    0,
    0,
    100
   ],
   "AngioFlag": "N",
   "BitsAllocated": 16,
   "BitsStored": 12,
   "BodyPartExamined": "BRAIN",
   "Columns": 900,
   "EchoNumbers": 1,
   "EchoTime": 34.0,
   "EchoTrainLength": 100,
   "FlipAngle": 90.0,
   "HighBit": 11,
   "ImageOrientationPatient": [
    1.0,
    0.0,
    0.0,
    0.0,
    0.96682339000573,
    -0.2554457526322
   ],
   "ImagePositionPatient": [
    -902.03389835358,
    -890.21958799246,
    159.28093048175
   ],
   "ImageType": [
    "ORIGINAL",
    "PRIMARY",
    "M",
    "ND",
    "MOSAIC"
   ],
   "ImagedNucleus": "1H",
   "ImagingFrequency": 123.257727,
   "InPlanePhaseEncodingDirection": "COL",
   "MRAcquisitionType": "2D",
   "MagneticFieldStrength": 3.0,
   "Manufacturer": "SIEMENS",
   "ManufacturerModelName": "Prisma",
   "Modality": "MR",
   "NumberOfAverages": 1.0,
   "NumberOfPhaseEncodingSteps": 100,
   "PercentPhaseFieldOfView": 100.0,
   "PercentSampling": 100.0,
   "PerformedProcedureStepStartTime": "145716.168000",
   "PhotometricInterpretation": "MONOCHROME2",
   "PixelBandwidth": 2380.0,
   "PixelRepresentation": 0,
   "PixelSpacing": [
    2.0,
    2.0
   ],
   "ProtocolName": "bold_100x100_s3_2x2x2_static_256",
   "RepetitionTime": 2000.0,
   "Rows": 900,
   "SAR": 0.08608472486551,
   "SamplesPerPixel": 1,
   "ScanOptions": "FS",
   "ScanningSequence": "EP",
   "SequenceName": "*epfid2d1_100",
   "SequenceVariant": "SK",
   "SeriesDescription": "bold_100x100_s3_2x2x2_static_256",
   "SeriesNumber": 10,
   "SeriesTime": "154912.629000",
   "SliceLocation": -73.406283491006,
   "SliceThickness": 2.0,
   "SmallestImagePixelValue": 0,
   "SoftwareVersions": "syngo MR E11",
   "SpacingBetweenSlices": 1.9999999458571,
   "SpecificCharacterSet": "ISO_IR 100",
   "StudyID": "1",
   "StudyTime": "145716.108000",
   "TransmitCoilName": "Body",
   "VariableFlipAngleFlag": "N",
   "WindowCenterWidthExplanation": "Algo1",
   "dBdt": 0.0
  },
  "slices": {}
 },
 "time": {
  "samples": {
   "AcquisitionNumber": [
    1,
    2,
    3,
    4,
    5,
    6,
    7,
    8,
    9,
    10,
    11,
    12,
    13,
    14,
    15,
    16,
    17,
    18,
    19,
    20,
    21,
    22,
    23,
    24,
    25,
    26,
    27,
    28,
    29,
    30,
    31,
    32,
    33,
    34,
    35,
    36,
    37,
    38,
    39,
    40,
    41,
    42,
    43,
    44,
    45,
    46,
    47,
    48,
    49,
    50,
    51,
    52,
    53,
    54,
    55,
    56,
    57,
    58,
    59,
    60,
    61,
    62,
    63,
    64,
    65,
    66,
    67,
    68,
    69,
    70,
    71,
    72,
    73,
    74,
    75,
    76,
    77,
    78,
    79,
    80,
    81,
    82,
    83,
    84,
    85,
    86,
    87,
    88,
    89,
    90,
    91,
    92,
    93,
    94,
    95,
    96,
    97,
    98,
    99,
    100,
    101,
    102,
    103,
    104,
    105,
    106,
    107,
    108,
    109,
    110,
    111,
    112,
    113,
    114,
    115,
    116,
    117,
    118,
    119,
    120,
    121,
    122,
    123,
    124,
    125,
    126,
    127,
    128,
    129,
    130,
    131,
    132,
    133,
    134,
    135,
    136,
    137,
    138,
    139,
    140,
    141,
    142,
    143,
    144,
    145,
    146,
    147,
    148,
    149,
    150,
    151,
    152,
    153,
    154,
    155,
    156,
    157,
    158,
    159,
    160,
    161,
    162,
    163,
    164,
    165,
    166,
    167,
    168,
    169,
    170,
    171,
    172,
    173,
    174,
    175,
    176,
    177,
    178,
    179,
    180,
    181,
    182,
    183,
    184,
    185,
    186,
    187,
    188,
    189,
    190,
    191,
    192,
    193,
    194,
    195,
    196,
    197,
    198,
    199,
    200,
    201,
    202,
    203,
    204,
    205,
    206,
    207,
    208,
    209,
    210,
    211,
    212,
    213,
    214,
    215,
    216,
    217,
    218,
    219,
    220,
    221,
    222,
    223,
    224,
    225,
    226,
    227,
    228,
    229,
    230,
    231,
    232,
    233,
    234,
    235,
    236,
    237,
    238,
    239,
    240,
    241,
    242,
    243,
    244,
    245,
    246,
    247,
    248,
    249,
    250,
    251,
    252,
    253,
    254,
    255,
    256
   ],
   "AcquisitionTime": [
    "154909.685000",
    "154911.685000",
    "154913.685000",
    "154915.685000",
    "154917.685000",
    "154919.685000",
    "154921.685000",
    "154923.685000",
    "154925.685000",
    "154927.685000",
    "154929.685000",
    "154931.685000",
    "154933.685000",
    "154935.685000",
    "154937.685000",
    "154939.685000",
    "154941.685000",
    "154943.685000",
    "154945.685000",
    "154947.685000",
    "154949.685000",
    "154951.685000",
    "154953.685000",
    "154955.685000",
    "154957.685000",
    "154959.685000",
    "155001.685000",
    "155003.685000",
    "155005.685000",
    "155007.685000",
    "155009.685000",
    "155011.685000",
    "155013.685000",
    "155015.685000",
    "155017.685000",
    "155019.685000",
    "155021.685000",
    "155023.685000",
    "155025.685000",
    "155027.685000",
    "155029.685000",
    "155031.685000",
    "155033.685000",
    "155035.685000",
    "155037.685000",
    "155039.685000",
    "155041.685000",
    "155043.685000",
    "155045.685000",
    "155047.685000",
    "155049.685000",
    "155051.685000",
    "155053.685000",
    "155055.685000",
    "155057.685000",
    "155059.685000",
    "155101.685000",
    "155103.685000",
    "155105.685000",
    "155107.685000",
    "155109.685000",
    "155111.685000",
    "155113.685000",
    "155115.685000",
    "155117.685000",
    "155119.685000",
    "155121.685000",
    "155123.685000",
    "155125.685000",
    "155127.685000",
    "155129.685000",
    "155131.685000",
    "155133.685000",
    "155135.685000",
    "155137.685000",
    "155139.685000",
    "155141.685000",
    "155143.685000",
    "155145.685000",
    "155147.685000",
    "155149.685000",
    "155151.685000",
    "155153.685000",
    "155155.685000",
    "155157.685000",
    "155159.685000",
    "155201.685000",
    "155203.685000",
    "155205.685000",
    "155207.685000",
    "155209.685000",
    "155211.685000",
    "155213.685000",
    "155215.685000",
    "155217.685000",
    "155219.685000",
    "155221.685000",
    "155223.685000",
    "155225.685000",
    "155227.685000",
    "155229.685000",
    "155231.685000",
    "155233.685000",
    "155235.685000",
    "155237.685000",
    "155239.685000",
    "155241.685000",
    "155243.685000",
    "155245.685000",
    "155247.685000",
    "155249.685000",
    "155251.685000",
    "155253.685000",
    "155255.685000",
    "155257.685000",
    "155259.685000",
    "155301.685000",
    "155303.685000",
    "155305.685000",
    "155307.685000",
    "155309.685000",
    "155311.685000",
    "155313.685000",
    "155315.685000",
    "155317.685000",
    "155319.685000",
    "155321.685000",
    "155323.685000",
    "155325.685000",
    "155327.685000",
    "155329.685000",
    "155331.685000",
    "155333.685000",
    "155335.685000",
    "155337.685000",
    "155339.685000",
    "155341.685000",
    "155343.685000",
    "155345.685000",
    "155347.685000",
    "155349.685000",
    "155351.685000",
    "155353.685000",
    "155355.685000",
    "155357.685000",
    "155359.685000",
    "155401.685000",
    "155403.685000",
    "155405.685000",
    "155407.685000",
    "155409.685000",
    "155411.685000",
    "155413.685000",
    "155415.685000",
    "155417.685000",
    "155419.685000",
    "155421.685000",
    "155423.685000",
    "155425.685000",
    "155427.685000",
    "155429.685000",
    "155431.685000",
    "155433.685000",
    "155435.685000",
    "155437.685000",
    "155439.685000",
    "155441.685000",
    "155443.685000",
    "155445.685000",
    "155447.685000",
    "155449.685000",
    "155451.685000",
    "155453.685000",
    "155455.685000",
    "155457.685000",
    "155459.685000",
    "155501.685000",
    "155503.685000",
    "155505.685000",
    "155507.685000",
    "155509.685000",
    "155511.685000",
    "155513.685000",
    "155515.685000",
    "155517.685000",
    "155519.685000",
    "155521.685000",
    "155523.685000",
    "155525.685000",
    "155527.685000",
    "155529.685000",
    "155531.685000",
    "155533.685000",
    "155535.685000",
    "155537.685000",
    "155539.685000",
    "155541.685000",
    "155543.685000",
    "155545.685000",
    "155547.685000",
    "155549.685000",
    "155551.685000",
    "155553.685000",
    "155555.685000",
    "155557.685000",
    "155559.685000",
    "155601.685000",
    "155603.685000",
    "155605.685000",
    "155607.685000",
    "155609.685000",
    "155611.685000",
    "155613.685000",
    "155615.685000",
    "155617.685000",
    "155619.685000",
    "155621.685000",
    "155623.685000",
    "155625.685000",
    "155627.685000",
    "155629.685000",
    "155631.685000",
    "155633.685000",
    "155635.685000",
    "155637.685000",
    "155639.685000",
    "155641.685000",
    "155643.685000",
    "155645.685000",
    "155647.685000",
    "155649.685000",
    "155651.685000",
    "155653.685000",
    "155655.685000",
    "155657.685000",
    "155659.685000",
    "155701.685000",
    "155703.685000",
    "155705.685000",
    "155707.685000",
    "155709.685000",
    "155711.685000",
    "155713.685000",
    "155715.685000",
    "155717.685000",
    "155719.685000",
    "155721.685000",
    "155723.685000",
    "155725.685000",
    "155727.685000",
    "155729.685000",
    "155731.685000",
    "155733.685000",
    "155735.685000",
    "155737.685000",
    "155739.685000"
   ],
   "ContentTime": [
    "154912.632000",
    "154914.128000",
    "154916.128000",
    "154918.128000",
    "154920.128000",
    "154922.127000",
    "154924.128000",
    "154926.127000",
    "154928.127000",
    "154930.128000",
    "154932.128000",
    "154934.127000",
    "154936.127000",
    "154938.128000",
    "154940.127000",
    "154942.127000",
    "154944.128000",
    "154946.127000",
    "154948.127000",
    "154950.127000",
    "154952.128000",
    "154954.128000",
    "154956.127000",
    "154958.128000",
    "155000.127000",
    "155002.127000",
    "155004.128000",
    "155006.127000",
    "155008.128000",
    "155010.128000",
    "155012.128000",
    "155014.128000",
    "155016.128000",
    "155018.128000",
    "155020.128000",
    "155022.128000",
    "155024.127000",
    "155026.127000",
    "155028.128000",
    "155030.128000",
    "155032.128000",
    "155034.127000",
    "155036.127000",
    "155038.128000",
    "155040.127000",
    "155042.128000",
    "155044.128000",
    "155046.127000",
    "155048.128000",
    "155050.128000",
    "155052.127000",
    "155054.127000",
    "155056.128000",
    "155058.127000",
    "155100.128000",
    "155102.128000",
    "155104.128000",
    "155106.127000",
    "155108.127000",
    "155110.128000",
    "155112.127000",
    "155114.128000",
    "155116.128000",
    "155118.128000",
    "155120.128000",
    "155122.128000",
    "155124.128000",
    "155126.128000",
    "155128.127000",
    "155130.128000",
    "155132.127000",
    "155134.128000",
    "155136.128000",
    "155138.127000",
    "155140.127000",
    "155142.128000",
    "155144.128000",
    "155146.128000",
    "155148.128000",
    "155150.128000",
    "155152.129000",
    "155154.128000",
    "155156.128000",
    "155158.128000",
    "155200.128000",
    "155202.128000",
    "155204.128000",
    "155206.128000",
    "155208.128000",
    "155210.128000",
    "155212.128000",
    "155214.128000",
    "155216.128000",
    "155218.128000",
    "155220.128000",
    "155222.128000",
    "155224.128000",
    "155226.127000",
    "155228.128000",
    "155230.128000",
    "155232.128000",
    "155234.128000",
    "155236.127000",
    "155238.127000",
    "155240.128000",
    "155242.128000",
    "155244.127000",
    "155246.127000",
    "155248.128000",
    "155250.128000",
    "155252.128000",
    "155254.128000",
    "155256.127000",
    "155258.128000",
    "155300.127000",
    "155302.129000",
    "155304.127000",
    "155306.128000",
    "155308.127000",
    "155310.128000",
    "155312.128000",
    "155314.128000",
    "155316.128000",
    "155318.127000",
    "155320.127000",
    "155322.128000",
    "155324.127000",
    "155326.127000",
    "155328.128000",
    "155330.128000",
    "155332.128000",
    "155334.128000",
    "155336.127000",
    "155338.128000",
    "155340.128000",
    "155342.128000",
    "155344.128000",
    "155346.128000",
    "155348.128000",
    "155350.127000",
    "155352.127000",
    "155354.127000",
    "155356.128000",
    "155358.128000",
    "155400.128000",
    "155402.128000",
    "155404.128000",
    "155406.128000",
    "155408.128000",
    "155410.128000",
    "155412.129000",
    "155414.127000",
    "155416.127000",
    "155418.128000",
    "155420.138000",
    "155422.127000",
    "155424.128000",
    "155426.127000",
    "155428.127000",
    "155430.127000",
    "155432.128000",
    "155434.128000",
    "155436.128000",
    "155438.128000",
    "155440.128000",
    "155442.128000",
    "155444.128000",
    "155446.127000",
    "155448.128000",
    "155450.128000",
    "155452.127000",
    "155454.128000",
    "155456.128000",
    "155458.127000",
    "155500.127000",
    "155502.128000",
    "155504.128000",
    "155506.128000",
    "155508.128000",
    "155510.128000",
    "155512.128000",
    "155514.128000",
    "155516.128000",
    "155518.127000",
    "155520.128000",
    "155522.128000",
    "155524.128000",
    "155526.128000",
    "155528.128000",
    "155530.128000",
    "155532.128000",
    "155534.128000",
    "155536.128000",
    "155538.128000",
    "155540.128000",
    "155542.128000",
    "155544.128000",
    "155546.127000",
    "155548.128000",
    "155550.127000",
    "155552.127000",
    "155554.127000",
    "155556.128000",
    "155558.127000",
    "155600.128000",
    "155602.127000",
    "155604.127000",
    "155606.127000",
    "155608.128000",
    "155610.127000",
    "155612.127000",
    "155614.127000",
    "155616.128000",
    "155618.128000",
    "155620.128000",
    "155622.128000",
    "155624.128000",
    "155626.127000",
    "155628.128000",
    "155630.128000",
    "155632.129000",
    "155634.128000",
    "155636.128000",
    "155638.128000",
    "155640.148000",
    "155642.128000",
    "155644.127000",
    "155646.127000",
    "155648.127000",
    "155650.127000",
    "155652.127000",
    "155654.128000",
    "155656.127000",
    "155658.128000",
    "155700.127000",
    "155702.128000",
    "155704.128000",
    "155706.127000",
    "155708.127000",
    "155710.127000",
    "155712.127000",
    "155714.127000",
    "155716.128000",
    "155718.127000",
    "155720.127000",
    "155722.127000",
    "155724.127000",
    "155726.128000",
    "155728.128000",
    "155730.128000",
    "155732.128000",
    "155734.128000",
    "155736.128000",
    "155738.128000",
    "155740.128000",
    "155741.776000"
   ],
   "InstanceCreationTime": [
    "154912.632000",
    "154914.128000",
    "154916.128000",
    "154918.128000",
    "154920.128000",
    "154922.127000",
    "154924.128000",
    "154926.127000",
    "154928.127000",
    "154930.128000",
    "154932.128000",
    "154934.127000",
    "154936.127000",
    "154938.128000",
    "154940.127000",
    "154942.127000",
    "154944.128000",
    "154946.127000",
    "154948.127000",
    "154950.127000",
    "154952.128000",
    "154954.128000",
    "154956.127000",
    "154958.128000",
    "155000.127000",
    "155002.127000",
    "155004.128000",
    "155006.127000",
    "155008.128000",
    "155010.128000",
    "155012.128000",
    "155014.128000",
    "155016.128000",
    "155018.128000",
    "155020.128000",
    "155022.128000",
    "155024.127000",
    "155026.127000",
    "155028.128000",
    "155030.128000",
    "155032.128000",
    "155034.127000",
    "155036.127000",
    "155038.128000",
    "155040.127000",
    "155042.128000",
    "155044.128000",
    "155046.127000",
    "155048.128000",
    "155050.128000",
    "155052.127000",
    "155054.127000",
    "155056.128000",
    "155058.127000",
    "155100.128000",
    "155102.128000",
    "155104.128000",
    "155106.127000",
    "155108.127000",
    "155110.128000",
    "155112.127000",
    "155114.128000",
    "155116.128000",
    "155118.128000",
    "155120.128000",
    "155122.128000",
    "155124.128000",
    "155126.128000",
    "155128.127000",
    "155130.128000",
    "155132.127000",
    "155134.128000",
    "155136.128000",
    "155138.127000",
    "155140.127000",
    "155142.128000",
    "155144.128000",
    "155146.128000",
    "155148.128000",
    "155150.128000",
    "155152.129000",
    "155154.128000",
    "155156.128000",
    "155158.128000",
    "155200.128000",
    "155202.128000",
    "155204.128000",
    "155206.128000",
    "155208.128000",
    "155210.128000",
    "155212.128000",
    "155214.128000",
    "155216.128000",
    "155218.128000",
    "155220.128000",
    "155222.128000",
    "155224.128000",
    "155226.127000",
    "155228.128000",
    "155230.128000",
    "155232.128000",
    "155234.128000",
    "155236.127000",
    "155238.127000",
    "155240.128000",
    "155242.128000",
    "155244.127000",
    "155246.127000",
    "155248.128000",
    "155250.128000",
    "155252.128000",
    "155254.128000",
    "155256.127000",
    "155258.128000",
    "155300.127000",
    "155302.129000",
    "155304.127000",
    "155306.128000",
    "155308.127000",
    "155310.128000",
    "155312.128000",
    "155314.128000",
    "155316.128000",
    "155318.127000",
    "155320.127000",
    "155322.128000",
    "155324.127000",
    "155326.127000",
    "155328.128000",
    "155330.128000",
    "155332.128000",
    "155334.128000",
    "155336.127000",
    "155338.128000",
    "155340.128000",
    "155342.128000",
    "155344.128000",
    "155346.128000",
    "155348.128000",
    "155350.127000",
    "155352.127000",
    "155354.127000",
    "155356.128000",
    "155358.128000",
    "155400.128000",
    "155402.128000",
    "155404.128000",
    "155406.128000",
    "155408.128000",
    "155410.128000",
    "155412.129000",
    "155414.127000",
    "155416.127000",
    "155418.128000",
    "155420.138000",
    "155422.127000",
    "155424.128000",
    "155426.127000",
    "155428.127000",
    "155430.127000",
    "155432.128000",
    "155434.128000",
    "155436.128000",
    "155438.128000",
    "155440.128000",
    "155442.128000",
    "155444.128000",
    "155446.127000",
    "155448.128000",
    "155450.128000",
    "155452.127000",
    "155454.128000",
    "155456.128000",
    "155458.127000",
    "155500.127000",
    "155502.128000",
    "155504.128000",
    "155506.128000",
    "155508.128000",
    "155510.128000",
    "155512.128000",
    "155514.128000",
    "155516.128000",
    "155518.127000",
    "155520.128000",
    "155522.128000",
    "155524.128000",
    "155526.128000",
    "155528.128000",
    "155530.128000",
    "155532.128000",
    "155534.128000",
    "155536.128000",
    "155538.128000",
    "155540.128000",
    "155542.128000",
    "155544.128000",
    "155546.127000",
    "155548.128000",
    "155550.127000",
    "155552.127000",
    "155554.127000",
    "155556.128000",
    "155558.127000",
    "155600.128000",
    "155602.127000",
    "155604.127000",
    "155606.127000",
    "155608.128000",
    "155610.127000",
    "155612.127000",
    "155614.127000",
    "155616.128000",
    "155618.128000",
    "155620.128000",
    "155622.128000",
    "155624.128000",
    "155626.127000",
    "155628.128000",
    "155630.128000",
    "155632.129000",
    "155634.128000",
    "155636.128000",
    "155638.128000",
    "155640.148000",
    "155642.128000",
    "155644.127000",
    "155646.127000",
    "155648.127000",
    "155650.127000",
    "155652.127000",
    "155654.128000",
    "155656.127000",
    "155658.128000",
    "155700.127000",
    "155702.128000",
    "155704.128000",
    "155706.127000",
    "155708.127000",
    "155710.127000",
    "155712.127000",
    "155714.127000",
    "155716.128000",
    "155718.127000",
    "155720.127000",
    "155722.127000",
    "155724.127000",
    "155726.128000",
    "155728.128000",
    "155730.128000",
    "155732.128000",
    "155734.128000",
    "155736.128000",
    "155738.128000",
    "155740.128000",
    "155741.776000"
   ],
   "InstanceNumber": [
    1,
    2,
    3,
    4,
    5,
    6,
    7,
    8,
    9,
    10,
    11,
    12,
    13,
    14,
    15,
    16,
    17,
    18,
    19,
    20,
    21,
    22,
    23,
    24,
    25,
    26,
    27,
    28,
    29,
    30,
    31,
    32,
    33,
    34,
    35,
    36,
    37,
    38,
    39,
    40,
    41,
    42,
    43,
    44,
    45,
    46,
    47,
    48,
    49,
    50,
    51,
    52,
    53,
    54,
    55,
    56,
    57,
    58,
    59,
    60,
    61,
    62,
    63,
    64,
    65,
    66,
    67,
    68,
    69,
    70,
    71,
    72,
    73,
    74,
    75,
    76,
    77,
    78,
    79,
    80,
    81,
    82,
    83,
    84,
    85,
    86,
    87,
    88,
    89,
    90,
    91,
    92,
    93,
    94,
    95,
    96,
    97,
    98,
    99,
    100,
    101,
    102,
    103,
    104,
    105,
    106,
    107,
    108,
    109,
    110,
    111,
    112,
    113,
    114,
    115,
    116,
    117,
    118,
    119,
    120,
    121,
    122,
    123,
    124,
    125,
    126,
    127,
    128,
    129,
    130,
    131,
    132,
    133,
    134,
    135,
    136,
    137,
    138,
    139,
    140,
    141,
    142,
    143,
    144,
    145,
    146,
    147,
    148,
    149,
    150,
    151,
    152,
    153,
    154,
    155,
    156,
    157,
    158,
    159,
    160,
    161,
    162,
    163,
    164,
    165,
    166,
    167,
    168,
    169,
    170,
    171,
    172,
    173,
    174,
    175,
    176,
    177,
    178,
    179,
    180,
    181,
    182,
    183,
    184,
    185,
    186,
    187,
    188,
    189,
    190,
    191,
    192,
    193,
    194,
    195,
    196,
    197,
    198,
    199,
    200,
    201,
    202,
    203,
    204,
    205,
    206,
    207,
    208,
    209,
    210,
    211,
    212,
    213,
    214,
    215,
    216,
    217,
    218,
    219,
    220,
    221,
    222,
    223,
    224,
    225,
    226,
    227,
    228,
    229,
    230,
    231,
    232,
    233,
    234,
    235,
    236,
    237,
    238,
    239,
    240,
    241,
    242,
    243,
    244,
    245,
    246,
    247,
    248,
    249,
    250,
    251,
    252,
    253,
    254,
    255,
    256
   ],
   "LargestImagePixelValue": [
    4062,
    3976,
    4095,
    4008,
    3863,
    3816,
    3797,
    3829,
    3782,
    3891,
    3858,
    3873,
    3929,
    3930,
    3877,
    3822,
    3822,
    3799,
    3819,
    3850,
    3884,
    3846,
    3853,
    3845,
    3874,
    3938,
    3927,
    3907,
    4095,
    4095,
    4017,
    4021,
    3974,
    3906,
    3924,
    3897,
    3910,
    3894,
    3884,
    3887,
    3943,
    3891,
    3895,
    3898,
    3880,
    3875,
    3794,
    3833,
    3824,
    3850,
    3836,
    3912,
    3890,
    3814,
    3765,
    3908,
    3906,
    3923,
    4059,
    4095,
    3971,
    3973,
    3971,
    3985,
    3989,
    3987,
    3923,
    3949,
    3978,
    3958,
    3897,
    3896,
    3972,
    4003,
    3886,
    3846,
    3861,
    3858,
    3800,
    3805,
    3789,
    3746,
    3827,
    3800,
    3751,
    3796,
    3750,
    3784,
    3790,
    3751,
    3743,
    3721,
    3724,
    3713,
    3860,
    3765,
    3691,
    3708,
    3755,
    3839,
    3811,
    3772,
    3793,
    3768,
    3803,
    3807,
    3744,
    3756,
    3756,
    3772,
    3712,
    3693,
    3728,
    3693,
    3705,
    3704,
    3699,
    3697,
    3702,
    3792,
    3782,
    3941,
    3954,
    3980,
    3989,
    3987,
    3984,
    3944,
    3896,
    3888,
    3909,
    3902,
    3898,
    3866,
    3864,
    3846,
    3840,
    3806,
    3794,
    3773,
    3775,
    3762,
    3787,
    3727,
    3749,
    3845,
    3864,
    3752,
    3773,
    3769,
    3854,
    3867,
    3975,
    4002,
    3927,
    3869,
    3888,
    3876,
    3907,
    3870,
    3850,
    3875,
    3838,
    3844,
    3872,
    3834,
    3837,
    3814,
    3782,
    3777,
    3814,
    3825,
    3820,
    3775,
    3742,
    3736,
    3729,
    3696,
    3751,
    3757,
    3766,
    3770,
    3744,
    3748,
    3819,
    3864,
    3765,
    3773,
    3742,
    3767,
    3827,
    3804,
    3774,
    3789,
    3747,
    3747,
    3740,
    3742,
    3739,
    3732,
    3718,
    3735,
    3722,
    3710,
    3699,
    3743,
    3715,
    3691,
    3741,
    3735,
    3760,
    3726,
    3698,
    3752,
    3718,
    3722,
    3734,
    3737,
    3736,
    3723,
    3713,
    3782,
    3861,
    3832,
    3766,
    3788,
    3799,
    3770,
    3756,
    3704,
    3747,
    3723,
    3733,
    3789,
    3851,
    3737,
    3710,
    3741,
    3730,
    3736,
    3852,
    3746,
    3769,
    3741,
    3846,
    3877,
    3904,
    3900,
    3883,
    3885,
    3909,
    3867,
    3840,
    3868,
    3863,
    3847
   ],
   "WindowCenter": [
    816.0,
    815.0,
    816.0,
    817.0,
    820.0,
    823.0,
    823.0,
    822.0,
    819.0,
    817.0,
    818.0,
    818.0,
    819.0,
    821.0,
    823.0,
    826.0,
    826.0,
    823.0,
    818.0,
    815.0,
    815.0,
    817.0,
    817.0,
    817.0,
    817.0,
    817.0,
    819.0,
    820.0,
    823.0,
    824.0,
    825.0,
    826.0,
    826.0,
    826.0,
    827.0,
    826.0,
    828.0,
    829.0,
    827.0,
    824.0,
    820.0,
    817.0,
    815.0,
    813.0,
    813.0,
    813.0,
    815.0,
    816.0,
    815.0,
    816.0,
    816.0,
    817.0,
    817.0,
    819.0,
    821.0,
    822.0,
    821.0,
    821.0,
    822.0,
    823.0,
    823.0,
    825.0,
    826.0,
    826.0,
    826.0,
    826.0,
    827.0,
    829.0,
    829.0,
    827.0,
    823.0,
    819.0,
    817.0,
    814.0,
    814.0,
    815.0,
    815.0,
    813.0,
    814.0,
    814.0,
    817.0,
    818.0,
    819.0,
    819.0,
    820.0,
    820.0,
    820.0,
    819.0,
    819.0,
    818.0,
    818.0,
    817.0,
    817.0,
    817.0,
    819.0,
    819.0,
    819.0,
    820.0,
    820.0,
    821.0,
    821.0,
    821.0,
    821.0,
    820.0,
    821.0,
    820.0,
    820.0,
    820.0,
    819.0,
    819.0,
    817.0,
    818.0,
    818.0,
    816.0,
    815.0,
    816.0,
    819.0,
    820.0,
    819.0,
    821.0,
    820.0,
    821.0,
    822.0,
    824.0,
    826.0,
