{
 "AcquisitionMatrixPE": 100,
 "AcquisitionNumber": 1,
 "AcquisitionTime": "13:06:57.725000",
 "BandwidthPerPixelPhaseEncode": 18.519,
 "BaseResolution": 100,
 "BodyPartExamined": "BRAIN",
 "ConsistencyInfo": "N4_VE11C_LATEST_20160120",
 "ConversionSoftware": "dcm2niix",
 "ConversionSoftwareVersion": "v1.0.20180622 GCC4.9.2",
 "DerivedVendorReportedEchoSpacing": 0.000539986,
 "DeviceSerialNumber": "166078",
 "DwellTime": 2.1e-06,
 "EchoTime": 0.034,
 "EchoTrainLength": 100,
 "EffectiveEchoSpacing": 0.000539986,
 "FlipAngle": 90,
 "ImageOrientationPatientDICOM": [
  1,
  -0.000158747,
  -0.000795365,
  -3.68357e-08,
  0.980649,
  -0.195774
 ],
 "ImageType": [
  "ORIGINAL",
  "PRIMARY",
  "M",
  "ND",
  "MOSAIC"
 ],
 "InPlanePhaseEncodingDirectionDICOM": "COL",
 "InstitutionAddress": "Street_StreetNo_Bei_Jing_District_CN_ZIP",
 "InstitutionName": "BeiJing_Normal_University",
 "InstitutionalDepartmentName": "Department",
 "MRAcquisitionType": "2D",
 "MagneticFieldStrength": 3,
 "Manufacturer": "Siemens",
 "ManufacturersModelName": "Prisma",
 "Modality": "MR",
 "MultibandAccelerationFactor": 3,
 "PartialFourier": 1,
 "PatientPosition": "HFS",
 "PercentPhaseFOV": 100,
 "PhaseEncodingDirection": "j-",
 "PhaseEncodingSteps": 100,
 "PhaseResolution": 1,
 "PixelBandwidth": 2380,
 "ProcedureStepDescription": "BNU_P2018_64CH_Zhen.ZongLei",
 "ProtocolName": "bold_100x100_s3_2x2x2_static_test_241",
 "PulseSequenceDetails": "%SiemensSeq%_ep2d_bold",
 "ReceiveCoilActiveElements": "HC1-7;NC1",
 "ReceiveCoilName": "HeadNeck_64",
 "ReconMatrixPE": 100,
 "RepetitionTime": 2,
 "SAR": 0.0772336,
 "ScanOptions": "FS",
 "ScanningSequence": "EP",
 "SequenceName": "_epfid2d1_100",
 "SequenceVariant": "SK",
 "SeriesDescription": "bold_100x100_s3_2x2x2_static_test_241",
 "SeriesNumber": 4,
 "ShimSetting": [
  -5456,
  -11488,
  -1248,
  388,
  -33,
  -219,
  -155,
  57
 ],
 "SliceThickness": 2,
 "SliceTiming": [
  1.4825,
  0,
  0.99,
  0.0825,
  1.0725,
  0.165,
  1.155,
  0.2475,
  1.2375,
  0.33,
  1.32,
  0.4125,
  1.4,
  0.5775,
  1.565,
  0.66,
  1.6475,
  0.7425,
  1.73,
  0.825,
  1.8125,
  0.9075,
  1.895,
  0.495,
  1.4825,
  0,
  0.99,
  0.0825,
  1.0725,
  0.165,
  1.155,
  0.2475,
  1.2375,
  0.33,
  1.32,
  0.4125,
  1.4,
  0.5775,
  1.565,
  0.66,
  1.6475,
  0.7425,
  1.73,
  0.825,
  1.8125,
  0.9075,
  1.895,
  0.495,
  1.4825,
  0,
  0.99,
  0.0825,
  1.0725,
  0.165,
  1.155,
  0.2475,
  1.2375,
  0.33,
  1.32,
  0.4125,
  1.4,
  0.5775,
  1.565,
  0.66,
  1.6475,
  0.7425,
  1.73,
  0.825,
  1.8125,
  0.9075,
  1.895,
  0.495
 ],
 "SoftwareVersions": "syngo_MR_E11",
 "SpacingBetweenSlices": 2,
 "StationName": "AWP166078",
 "TaskName": "coco",
 "TotalReadoutTime": 0.0534586,
 "TxRefAmp": 222.948,
 "dcmmeta_affine": [
  [
   -1.9999992847442627,
   -7.367145116177198e-08,
   -0.0016221044352278113,
   100.8614501953125
  ],
  [
   0.0003174941521137953,
   1.9612979888916016,
   -0.3915485441684723,
   -84.0661392211914
  ],
  [
   -0.001590729458257556,
   0.39154866337776184,
   1.9612972736358643,
   -78.90291595458984
  ],
  [
   0.0,
   0.0,
   0.0,
   1.0
  ]
 ],
 "dcmmeta_reorient_transform": [
  [
   0.0,
   -1.0,
   0.0,
   99.0
  ],
  [
   1.0,
   0.0,
   0.0,
   0.0
  ],
  [
   0.0,
   0.0,
   1.0,
   0.0
  ],
  [
   0.0,
   0.0,
   0.0,
   1.0
  ]
 ],
 "dcmmeta_shape": [
  100,
  100,
  72,
  241
 ],
 "dcmmeta_slice_dim": 2,
 "dcmmeta_version": 0.6,
 "global": {
  "const": {
   "AcquisitionMatrix": [
    100,
    0,
    0,
    100
   ],
   "AngioFlag": "N",
   "BitsAllocated": 16,
   "BitsStored": 12,
   "BodyPartExamined": "BRAIN",
   "Columns": 900,
   "EchoNumbers": 1,
   "EchoTime": 34.0,
   "EchoTrainLength": 100,
   "FlipAngle": 90.0,
   "HighBit": 11,
   "ImageOrientationPatient": [
    0.9999996710971,
    -0.0001587470798,
    -0.0007953647299,
    -3.6835727e-08,
    0.98064897486101,
    -0.1957743295329
   ],
   "ImagePositionPatient": [
    -900.86115005801,
    -894.49454114663,
    117.11615882699
   ],
   "ImageType": [
    "ORIGINAL",
    "PRIMARY",
    "M",
    "ND",
    "MOSAIC"
   ],
   "ImagedNucleus": "1H",
   "ImagingFrequency": 123.257716,
   "InPlanePhaseEncodingDirection": "COL",
   "MRAcquisitionType": "2D",
   "MagneticFieldStrength": 3.0,
   "Manufacturer": "SIEMENS",
   "ManufacturerModelName": "Prisma",
   "Modality": "MR",
   "NumberOfAverages": 1.0,
   "NumberOfPhaseEncodingSteps": 100,
   "PercentPhaseFieldOfView": 100.0,
   "PercentSampling": 100.0,
   "PerformedProcedureStepStartTime": "125038.673000",
   "PhotometricInterpretation": "MONOCHROME2",
   "PixelBandwidth": 2380.0,
   "PixelRepresentation": 0,
   "PixelSpacing": [
    2.0,
    2.0
   ],
   "ProtocolName": "bold_100x100_s3_2x2x2_static_test_241",
   "RepetitionTime": 2000.0,
   "Rows": 900,
   "SAR": 0.077233633302,
   "SamplesPerPixel": 1,
   "ScanOptions": "FS",
   "ScanningSequence": "EP",
   "SequenceName": "*epfid2d1_100",
   "SequenceVariant": "SK",
   "SeriesDescription": "bold_100x100_s3_2x2x2_static_test_241",
   "SeriesNumber": 4,
   "SeriesTime": "130659.901000",
   "SliceLocation": -60.999853601399,
   "SliceThickness": 2.0,
   "SmallestImagePixelValue": 0,
   "SoftwareVersions": "syngo MR E11",
   "SpacingBetweenSlices": 2.0000000129148,
   "SpecificCharacterSet": "ISO_IR 100",
   "StudyID": "1",
   "StudyTime": "125038.603000",
   "TransmitCoilName": "Body",
   "VariableFlipAngleFlag": "N",
   "WindowCenterWidthExplanation": "Algo1",
   "dBdt": 0.0
  },
  "slices": {}
 },
 "time": {
  "samples": {
   "AcquisitionNumber": [
    1,
    2,
    3,
    4,
    5,
    6,
    7,
    8,
    9,
    10,
    11,
    12,
    13,
    14,
    15,
    16,
    17,
    18,
    19,
    20,
    21,
    22,
    23,
    24,
    25,
    26,
    27,
    28,
    29,
    30,
    31,
    32,
    33,
    34,
    35,
    36,
    37,
    38,
    39,
    40,
    41,
    42,
    43,
    44,
    45,
    46,
    47,
    48,
    49,
    50,
    51,
    52,
    53,
    54,
    55,
    56,
    57,
    58,
    59,
    60,
    61,
    62,
    63,
    64,
    65,
    66,
    67,
    68,
    69,
    70,
    71,
    72,
    73,
    74,
    75,
    76,
    77,
    78,
    79,
    80,
    81,
    82,
    83,
    84,
    85,
    86,
    87,
    88,
    89,
    90,
    91,
    92,
    93,
    94,
    95,
    96,
    97,
    98,
    99,
    100,
    101,
    102,
    103,
    104,
    105,
    106,
    107,
    108,
    109,
    110,
    111,
    112,
    113,
    114,
    115,
    116,
    117,
    118,
    119,
    120,
    121,
    122,
    123,
    124,
    125,
    126,
    127,
    128,
    129,
    130,
    131,
    132,
    133,
    134,
    135,
    136,
    137,
    138,
    139,
    140,
    141,
    142,
    143,
    144,
    145,
    146,
    147,
    148,
    149,
    150,
    151,
    152,
    153,
    154,
    155,
    156,
    157,
    158,
    159,
    160,
    161,
    162,
    163,
    164,
    165,
    166,
    167,
    168,
    169,
    170,
    171,
    172,
    173,
    174,
    175,
    176,
    177,
    178,
    179,
    180,
    181,
    182,
    183,
    184,
    185,
    186,
    187,
    188,
    189,
    190,
    191,
    192,
    193,
    194,
    195,
    196,
    197,
    198,
    199,
    200,
    201,
    202,
    203,
    204,
    205,
    206,
    207,
    208,
    209,
    210,
    211,
    212,
    213,
    214,
    215,
    216,
    217,
    218,
    219,
    220,
    221,
    222,
    223,
    224,
    225,
    226,
    227,
    228,
    229,
    230,
    231,
    232,
    233,
    234,
    235,
    236,
    237,
    238,
    239,
    240,
    241
   ],
   "AcquisitionTime": [
    "130657.725000",
    "130659.725000",
    "130701.725000",
    "130703.725000",
    "130705.725000",
    "130707.725000",
    "130709.725000",
    "130711.725000",
    "130713.725000",
    "130715.725000",
    "130717.725000",
    "130719.725000",
    "130721.725000",
    "130723.725000",
    "130725.725000",
    "130727.725000",
    "130729.725000",
    "130731.725000",
    "130733.725000",
    "130735.725000",
    "130737.725000",
    "130739.725000",
    "130741.725000",
    "130743.725000",
    "130745.725000",
    "130747.725000",
    "130749.725000",
    "130751.725000",
    "130753.725000",
    "130755.725000",
    "130757.725000",
    "130759.725000",
    "130801.725000",
    "130803.725000",
    "130805.725000",
    "130807.725000",
    "130809.725000",
    "130811.725000",
    "130813.725000",
    "130815.725000",
    "130817.725000",
    "130819.725000",
    "130821.725000",
    "130823.725000",
    "130825.725000",
    "130827.725000",
    "130829.725000",
    "130831.725000",
    "130833.725000",
    "130835.725000",
    "130837.725000",
    "130839.725000",
    "130841.725000",
    "130843.725000",
    "130845.725000",
    "130847.725000",
    "130849.725000",
    "130851.725000",
    "130853.725000",
    "130855.725000",
    "130857.725000",
    "130859.725000",
    "130901.725000",
    "130903.725000",
    "130905.725000",
    "130907.725000",
    "130909.725000",
    "130911.725000",
    "130913.725000",
    "130915.725000",
    "130917.725000",
    "130919.725000",
    "130921.725000",
    "130923.725000",
    "130925.725000",
    "130927.725000",
    "130929.725000",
    "130931.725000",
    "130933.725000",
    "130935.725000",
    "130937.725000",
    "130939.725000",
    "130941.725000",
    "130943.725000",
    "130945.725000",
    "130947.725000",
    "130949.725000",
    "130951.725000",
    "130953.725000",
    "130955.725000",
    "130957.725000",
    "130959.725000",
    "131001.725000",
    "131003.725000",
    "131005.725000",
    "131007.725000",
    "131009.725000",
    "131011.725000",
    "131013.725000",
    "131015.725000",
    "131017.725000",
    "131019.725000",
    "131021.725000",
    "131023.725000",
    "131025.725000",
    "131027.725000",
    "131029.725000",
    "131031.725000",
    "131033.725000",
    "131035.725000",
    "131037.725000",
    "131039.725000",
    "131041.725000",
    "131043.725000",
    "131045.725000",
    "131047.725000",
    "131049.725000",
    "131051.725000",
    "131053.725000",
    "131055.725000",
    "131057.725000",
    "131059.725000",
    "131101.725000",
    "131103.725000",
    "131105.725000",
    "131107.725000",
    "131109.725000",
    "131111.725000",
    "131113.725000",
    "131115.725000",
    "131117.725000",
    "131119.725000",
    "131121.725000",
    "131123.725000",
    "131125.725000",
    "131127.725000",
    "131129.725000",
    "131131.725000",
    "131133.725000",
    "131135.725000",
    "131137.725000",
    "131139.725000",
    "131141.725000",
    "131143.725000",
    "131145.725000",
    "131147.725000",
    "131149.725000",
    "131151.725000",
    "131153.725000",
    "131155.725000",
    "131157.725000",
    "131159.725000",
    "131201.725000",
    "131203.725000",
    "131205.725000",
    "131207.725000",
    "131209.725000",
    "131211.725000",
    "131213.725000",
    "131215.725000",
    "131217.725000",
    "131219.725000",
    "131221.725000",
    "131223.725000",
    "131225.725000",
    "131227.725000",
    "131229.725000",
    "131231.725000",
    "131233.725000",
    "131235.725000",
    "131237.725000",
    "131239.725000",
    "131241.725000",
    "131243.725000",
    "131245.725000",
    "131247.725000",
    "131249.725000",
    "131251.725000",
    "131253.725000",
    "131255.725000",
    "131257.725000",
    "131259.725000",
    "131301.725000",
    "131303.725000",
    "131305.725000",
    "131307.725000",
    "131309.725000",
    "131311.725000",
    "131313.725000",
    "131315.725000",
    "131317.725000",
    "131319.725000",
    "131321.725000",
    "131323.725000",
    "131325.725000",
    "131327.725000",
    "131329.725000",
    "131331.725000",
    "131333.725000",
    "131335.725000",
    "131337.725000",
    "131339.725000",
    "131341.725000",
    "131343.725000",
    "131345.725000",
    "131347.725000",
    "131349.725000",
    "131351.725000",
    "131353.725000",
    "131355.725000",
    "131357.725000",
    "131359.725000",
    "131401.725000",
    "131403.725000",
    "131405.725000",
    "131407.725000",
    "131409.725000",
    "131411.725000",
    "131413.725000",
    "131415.725000",
    "131417.725000",
    "131419.725000",
    "131421.725000",
    "131423.725000",
    "131425.725000",
    "131427.725000",
    "131429.725000",
    "131431.725000",
    "131433.725000",
    "131435.725000",
    "131437.725000",
    "131439.725000",
    "131441.725000",
    "131443.725000",
    "131445.725000",
    "131447.725000",
    "131449.725000",
    "131451.725000",
    "131453.725000",
    "131455.725000",
    "131457.725000"
   ],
   "ContentTime": [
    "130659.905000",
    "130701.401000",
    "130703.400000",
    "130705.399000",
    "130707.400000",
    "130709.400000",
    "130711.400000",
    "130713.400000",
    "130715.400000",
    "130717.401000",
    "130719.400000",
    "130721.399000",
    "130723.400000",
    "130725.399000",
    "130727.401000",
    "130729.400000",
    "130731.400000",
    "130733.401000",
    "130735.400000",
    "130737.401000",
    "130739.400000",
    "130741.400000",
    "130743.400000",
    "130745.401000",
    "130747.401000",
    "130749.401000",
    "130751.401000",
    "130753.401000",
    "130755.400000",
    "130757.399000",
    "130759.400000",
    "130801.400000",
    "130803.400000",
    "130805.401000",
    "130807.401000",
    "130809.401000",
    "130811.401000",
    "130813.400000",
    "130815.399000",
    "130817.400000",
    "130819.401000",
    "130821.400000",
    "130823.400000",
    "130825.401000",
    "130827.401000",
    "130829.401000",
    "130831.400000",
    "130833.400000",
    "130835.400000",
    "130837.400000",
    "130839.401000",
    "130841.400000",
    "130843.400000",
    "130845.400000",
    "130847.401000",
    "130849.400000",
    "130851.400000",
    "130853.400000",
    "130855.401000",
    "130857.401000",
    "130859.400000",
    "130901.400000",
    "130903.401000",
    "130905.400000",
    "130907.400000",
    "130909.400000",
    "130911.400000",
    "130913.401000",
    "130915.400000",
    "130917.401000",
    "130919.401000",
    "130921.401000",
    "130923.400000",
    "130925.399000",
    "130927.400000",
    "130929.401000",
    "130931.401000",
    "130933.401000",
    "130935.400000",
    "130937.400000",
    "130939.400000",
    "130941.400000",
    "130943.400000",
    "130945.399000",
    "130947.400000",
    "130949.400000",
    "130951.401000",
    "130953.400000",
    "130955.411000",
    "130957.401000",
    "130959.400000",
    "131001.400000",
    "131003.400000",
    "131005.400000",
    "131007.400000",
    "131009.401000",
    "131011.401000",
    "131013.400000",
    "131015.400000",
    "131017.400000",
    "131019.399000",
    "131021.400000",
    "131023.400000",
    "131025.400000",
    "131027.400000",
    "131029.400000",
    "131031.400000",
    "131033.400000",
    "131035.400000",
    "131037.399000",
    "131039.400000",
    "131041.400000",
    "131043.400000",
    "131045.400000",
    "131047.401000",
    "131049.400000",
    "131051.400000",
    "131053.400000",
    "131055.400000",
    "131057.401000",
    "131059.400000",
    "131101.400000",
    "131103.400000",
    "131105.401000",
    "131107.401000",
    "131109.399000",
    "131111.400000",
    "131113.400000",
    "131115.400000",
    "131117.401000",
    "131119.400000",
    "131121.400000",
    "131123.401000",
    "131125.400000",
    "131127.400000",
    "131129.400000",
    "131131.400000",
    "131133.401000",
    "131135.401000",
    "131137.400000",
    "131139.401000",
    "131141.401000",
    "131143.399000",
    "131145.400000",
    "131147.400000",
    "131149.401000",
    "131151.401000",
    "131153.400000",
    "131155.401000",
    "131157.400000",
    "131159.401000",
    "131201.399000",
    "131203.399000",
    "131205.399000",
    "131207.401000",
    "131209.400000",
    "131211.401000",
    "131213.400000",
    "131215.401000",
    "131217.400000",
    "131219.399000",
    "131221.399000",
    "131223.401000",
    "131225.401000",
    "131227.401000",
    "131229.401000",
    "131231.400000",
    "131233.400000",
    "131235.399000",
    "131237.399000",
    "131239.400000",
    "131241.401000",
    "131243.400000",
    "131245.400000",
    "131247.401000",
    "131249.400000",
    "131251.400000",
    "131253.400000",
    "131255.399000",
    "131257.399000",
    "131259.400000",
    "131301.400000",
    "131303.401000",
    "131305.401000",
    "131307.400000",
    "131309.401000",
    "131311.400000",
    "131313.400000",
    "131315.400000",
    "131317.401000",
    "131319.401000",
    "131321.401000",
    "131323.401000",
    "131325.401000",
    "131327.400000",
    "131329.400000",
    "131331.400000",
    "131333.401000",
    "131335.401000",
    "131337.401000",
    "131339.401000",
    "131341.400000",
    "131343.401000",
    "131345.400000",
    "131347.400000",
    "131349.400000",
    "131351.401000",
    "131353.401000",
    "131355.401000",
    "131357.401000",
    "131359.401000",
    "131401.401000",
    "131403.400000",
    "131405.400000",
    "131407.400000",
    "131409.401000",
    "131411.400000",
    "131413.401000",
    "131415.400000",
    "131417.400000",
    "131419.401000",
    "131421.400000",
    "131423.399000",
    "131425.400000",
    "131427.401000",
    "131429.401000",
    "131431.401000",
    "131433.401000",
    "131435.400000",
    "131437.400000",
    "131439.400000",
    "131441.399000",
    "131443.401000",
    "131445.401000",
    "131447.401000",
    "131449.401000",
    "131451.400000",
    "131453.401000",
    "131455.400000",
    "131457.399000",
    "131459.072000"
   ],
   "InstanceCreationTime": [
    "130659.905000",
    "130701.401000",
    "130703.400000",
    "130705.399000",
    "130707.400000",
    "130709.400000",
    "130711.400000",
    "130713.400000",
    "130715.400000",
    "130717.401000",
    "130719.400000",
    "130721.399000",
    "130723.400000",
    "130725.399000",
    "130727.401000",
    "130729.400000",
    "130731.400000",
    "130733.401000",
    "130735.400000",
    "130737.401000",
    "130739.400000",
    "130741.400000",
    "130743.400000",
    "130745.401000",
    "130747.401000",
    "130749.401000",
    "130751.401000",
    "130753.401000",
    "130755.400000",
    "130757.399000",
    "130759.400000",
    "130801.400000",
    "130803.400000",
    "130805.401000",
    "130807.401000",
    "130809.401000",
    "130811.401000",
    "130813.400000",
    "130815.399000",
    "130817.400000",
    "130819.401000",
    "130821.400000",
    "130823.400000",
    "130825.401000",
    "130827.401000",
    "130829.401000",
    "130831.400000",
    "130833.400000",
    "130835.400000",
    "130837.400000",
    "130839.401000",
    "130841.400000",
    "130843.400000",
    "130845.400000",
    "130847.401000",
    "130849.400000",
    "130851.400000",
    "130853.400000",
    "130855.401000",
    "130857.401000",
    "130859.400000",
    "130901.400000",
    "130903.401000",
    "130905.400000",
    "130907.400000",
    "130909.400000",
    "130911.400000",
    "130913.401000",
    "130915.400000",
    "130917.401000",
    "130919.401000",
    "130921.401000",
    "130923.400000",
    "130925.399000",
    "130927.400000",
    "130929.401000",
    "130931.401000",
    "130933.401000",
    "130935.400000",
    "130937.400000",
    "130939.400000",
    "130941.400000",
    "130943.400000",
    "130945.399000",
    "130947.400000",
    "130949.400000",
    "130951.401000",
    "130953.400000",
    "130955.411000",
    "130957.401000",
    "130959.400000",
    "131001.400000",
    "131003.400000",
    "131005.400000",
    "131007.400000",
    "131009.401000",
    "131011.401000",
    "131013.400000",
    "131015.400000",
    "131017.400000",
    "131019.399000",
    "131021.400000",
    "131023.400000",
    "131025.400000",
    "131027.400000",
    "131029.400000",
    "131031.400000",
    "131033.400000",
    "131035.400000",
    "131037.399000",
    "131039.400000",
    "131041.400000",
    "131043.400000",
    "131045.400000",
    "131047.401000",
    "131049.400000",
    "131051.400000",
    "131053.400000",
    "131055.400000",
    "131057.401000",
    "131059.400000",
    "131101.400000",
    "131103.400000",
    "131105.401000",
    "131107.401000",
    "131109.399000",
    "131111.400000",
    "131113.400000",
    "131115.400000",
    "131117.401000",
    "131119.400000",
    "131121.400000",
    "131123.401000",
    "131125.400000",
    "131127.400000",
    "131129.400000",
    "131131.400000",
    "131133.401000",
    "131135.401000",
    "131137.400000",
    "131139.401000",
    "131141.401000",
    "131143.399000",
    "131145.400000",
    "131147.400000",
    "131149.401000",
    "131151.401000",
    "131153.400000",
    "131155.401000",
    "131157.400000",
    "131159.401000",
    "131201.399000",
    "131203.399000",
    "131205.399000",
    "131207.401000",
    "131209.400000",
    "131211.401000",
    "131213.400000",
    "131215.401000",
    "131217.400000",
    "131219.399000",
    "131221.399000",
    "131223.401000",
    "131225.401000",
    "131227.401000",
    "131229.401000",
    "131231.400000",
    "131233.400000",
    "131235.399000",
    "131237.399000",
    "131239.400000",
    "131241.401000",
    "131243.400000",
    "131245.400000",
    "131247.401000",
    "131249.400000",
    "131251.400000",
    "131253.400000",
    "131255.399000",
    "131257.399000",
    "131259.400000",
    "131301.400000",
    "131303.401000",
    "131305.401000",
    "131307.400000",
    "131309.401000",
    "131311.400000",
    "131313.400000",
    "131315.400000",
    "131317.401000",
    "131319.401000",
    "131321.401000",
    "131323.401000",
    "131325.401000",
    "131327.400000",
    "131329.400000",
    "131331.400000",
    "131333.401000",
    "131335.401000",
    "131337.401000",
    "131339.401000",
    "131341.400000",
    "131343.401000",
    "131345.400000",
    "131347.400000",
    "131349.400000",
    "131351.401000",
    "131353.401000",
    "131355.401000",
    "131357.401000",
    "131359.401000",
    "131401.401000",
    "131403.400000",
    "131405.400000",
    "131407.400000",
    "131409.401000",
    "131411.400000",
    "131413.401000",
    "131415.400000",
    "131417.400000",
    "131419.401000",
    "131421.400000",
    "131423.399000",
    "131425.400000",
    "131427.401000",
    "131429.401000",
    "131431.401000",
    "131433.401000",
    "131435.400000",
    "131437.400000",
    "131439.400000",
    "131441.399000",
    "131443.401000",
    "131445.401000",
    "131447.401000",
    "131449.401000",
    "131451.400000",
    "131453.401000",
    "131455.400000",
    "131457.399000",
    "131459.072000"
   ],
   "InstanceNumber": [
    1,
    2,
    3,
    4,
    5,
    6,
    7,
    8,
    9,
    10,
    11,
    12,
    13,
    14,
    15,
    16,
    17,
    18,
    19,
    20,
    21,
    22,
    23,
    24,
    25,
    26,
    27,
    28,
    29,
    30,
    31,
    32,
    33,
    34,
    35,
    36,
    37,
    38,
    39,
    40,
    41,
    42,
    43,
    44,
    45,
    46,
    47,
    48,
    49,
    50,
    51,
    52,
    53,
    54,
    55,
    56,
    57,
    58,
    59,
    60,
    61,
    62,
    63,
    64,
    65,
    66,
    67,
    68,
    69,
    70,
    71,
    72,
    73,
    74,
    75,
    76,
    77,
    78,
    79,
    80,
    81,
    82,
    83,
    84,
    85,
    86,
    87,
    88,
    89,
    90,
    91,
    92,
    93,
    94,
    95,
    96,
    97,
    98,
    99,
    100,
    101,
    102,
    103,
    104,
    105,
    106,
    107,
    108,
    109,
    110,
    111,
    112,
    113,
    114,
    115,
    116,
    117,
    118,
    119,
    120,
    121,
    122,
    123,
    124,
    125,
    126,
    127,
    128,
    129,
    130,
    131,
    132,
    133,
    134,
    135,
    136,
    137,
    138,
    139,
    140,
    141,
    142,
    143,
    144,
    145,
    146,
    147,
    148,
    149,
    150,
    151,
    152,
    153,
    154,
    155,
    156,
    157,
    158,
    159,
    160,
    161,
    162,
    163,
    164,
    165,
    166,
    167,
    168,
    169,
    170,
    171,
    172,
    173,
    174,
    175,
    176,
    177,
    178,
    179,
    180,
    181,
    182,
    183,
    184,
    185,
    186,
    187,
    188,
    189,
    190,
    191,
    192,
    193,
    194,
    195,
    196,
    197,
    198,
    199,
    200,
    201,
    202,
    203,
    204,
    205,
    206,
    207,
    208,
    209,
    210,
    211,
    212,
    213,
    214,
    215,
    216,
    217,
    218,
    219,
    220,
    221,
    222,
    223,
    224,
    225,
    226,
    227,
    228,
    229,
    230,
    231,
    232,
    233,
    234,
    235,
    236,
    237,
    238,
    239,
    240,
    241
   ],
   "LargestImagePixelValue": [
    3547,
    3526,
    3497,
    3514,
    3494,
    3530,
    3507,
    3460,
    3461,
    3482,
    3510,
    3507,
    3491,
    3543,
    3544,
    3475,
    3487,
    3504,
    3525,
    3533,
    3507,
    3495,
    3523,
    3515,
    3520,
    3519,
    3504,
    3504,
    3489,
    3508,
    3505,
    3451,
    3483,
    3490,
    3475,
    3470,
    3488,
    3465,
    3494,
    3517,
    3467,
    3513,
    3539,
    3526,
    3524,
    3509,
    3488,
    3468,
    3487,
    3498,
    3514,
    3463,
    3514,
    3500,
    3510,
    3529,
    3491,
    3447,
    3531,
    3456,
    3462,
    3465,
    3470,
    3456,
    3478,
    3496,
    3469,
    3489,
    3462,
    3453,
    3472,
    3474,
    3493,
    3476,
    3477,
    3505,
    3459,
    3457,
    3488,
    3485,
    3461,
    3474,
    3486,
    3461,
    3518,
    3527,
    3489,
    3498,
    3493,
    3481,
    3543,
    3518,
    3437,
    3461,
    3530,
    3471,
    3494,
    3453,
    3443,
    3477,
    3464,
    3461,
    3507,
    3489,
    3459,
    3482,
    3478,
    3465,
    3501,
    3454,
    3424,
    3447,
    3495,
    3479,
    3448,
    3516,
    3498,
    3427,
    3493,
    3488,
    3468,
    3515,
    3454,
    3428,
    3498,
    3444,
    3458,
    3466,
    3460,
    3513,
    3454,
    3512,
    3461,
    3458,
    3511,
    3451,
    3440,
    3469,
    3482,
    3457,
    3491,
    3496,
    3484,
    3476,
    3508,
    3484,
    3468,
    3511,
    3503,
    3493,
    3492,
    3471,
    3464,
    3503,
    3453,
    3465,
    3507,
    3523,
    3526,
    3497,
    3492,
    3487,
    3458,
    3494,
    3525,
    3455,
    3466,
    3486,
    3460,
    3518,
    3538,
    3505,
    3530,
    3548,
    3489,
    3497,
    3486,
    3463,
    3488,
    3522,
    3468,
    3455,
    3478,
    3539,
    3464,
    3447,
    3461,
    3522,
    3503,
    3476,
    3466,
    3486,
    3474,
    3477,
    3485,
    3524,
    3523,
    3524,
    3489,
    3470,
    3460,
    3464,
    3516,
    3467,
    3491,
    3495,
    3473,
    3512,
    3538,
    3516,
    3478,
    3490,
    3485,
    3501,
    3491,
    3499,
    3480,
    3498,
    3462,
    3506,
    3516,
    3495,
    3474,
    3574,
    3561,
    3514,
    3574,
    3519,
    3494,
    3467,
    3536,
    3468,
    3464,
    3492,
    3504,
    3541,
    3493,
    3532,
    3506,
    3507,
    3512
   ],
   "WindowCenter": [
    823.0,
    822.0,
    821.0,
    819.0,
    818.0,
    817.0,
    818.0,
    820.0,
    820.0,
    818.0,
    818.0,
    818.0,
    819.0,
    820.0,
    820.0,
    820.0,
    819.0,
    818.0,
    817.0,
    817.0,
    817.0,
    817.0,
    818.0,
    818.0,
    818.0,
    817.0,
    816.0,
    816.0,
    816.0,
    818.0,
    818.0,
    817.0,
    817.0,
    817.0,
    817.0,
    818.0,
    818.0,
    817.0,
    817.0,
    816.0,
    816.0,
    817.0,
    818.0,
    817.0,
    816.0,
    816.0,
    817.0,
    818.0,
    817.0,
    817.0,
    817.0,
    816.0,
    816.0,
    816.0,
    818.0,
    818.0,
    818.0,
    816.0,
    817.0,
    818.0,
    818.0,
    818.0,
    817.0,
    816.0,
    817.0,
    817.0,
    818.0,
    819.0,
    819.0,
    819.0,
    819.0,
    819.0,
    819.0,
    819.0,
    818.0,
    819.0,
    818.0,
    818.0,
    817.0,
    818.0,
    818.0,
    818.0,
    817.0,
    817.0,
    817.0,
    817.0,
    817.0,
    817.0,
    817.0,
    818.0,
    819.0,
    819.0,
    817.0,
    817.0,
    817.0,
    818.0,
    818.0,
    818.0,
    818.0,
    818.0,
    818.0,
    818.0,
    818.0,
    818.0,
    818.0,
    818.0,
    818.0,
    817.0,
    818.0,
    818.0,
    818.0,
    818.0,
    818.0,
    817.0,
    817.0,
    818.0,
    818.0,
    817.0,
    818.0,
    819.0,
    819.0,
    818.0,
    818.0,
    819.0,
    819.0,
    818.0,
    818.0,
    817.0,
    817.0,
    819.0,
    818.0,
    818.0,
    817.0,
    818.0,
    820.0,
    819.0,
    819.0,
    820.0,
    820.0,
    820.0,
    819.0,
    819.0,
    818.0,
    819.0,
    820.0,
    820.0,
    819.0,
    820.0,
    820.0,
    820.0,
    819.0,
    818.0,
    819.0,
    822.0,
    822.0,
    820.0,
    818.0,
    817.0,
    817.0,
    818.0,
    819.0,
    819.0,
    818.0,
    818.0,
    819.0,
    819.0,
    819.0,
    819.0,
    819.0,
    819.0,
    819.0,
    819.0,
    820.0,
    820.0,
    820.0,
    819.0,
    819.0,
    819.0,
    819.0,
    819.0,
    819.0,
    820.0,
    819.0,
    819.0,
    818.0,
    817.0,
    818.0,
    819.0,
    819.0,
    818.0,
    818.0,
    817.0,
    819.0,
    819.0,
    819.0,
    819.0,
    819.0,
    819.0,
    819.0,
    818.0,
    818.0,
    818.0,
    818.0,
    818.0,
    819.0,
    819.0,
    819.0,
    819.0,
    819.0,
    818.0,
    819.0,
    819.0,
    820.0,
    820.0,
    820.0,
    819.0,
    819.0,
    818.0,
    818.0,
    819.0,
    820.0,
    819.0,
    819.0,
    820.0,
    820.0,
    820.0,
    821.0,
    820.0,
    820.0,
    821.0,
    822.0,
    820.0,
    819.0,
