{
 "AcquisitionMatrixPE": 100,
 "AcquisitionNumber": 1,
 "AcquisitionTime": "14:27:1.902500",
 "BandwidthPerPixelPhaseEncode": 18.519,
 "BaseResolution": 100,
 "BodyPartExamined": "BRAIN",
 "ConsistencyInfo": "N4_VE11C_LATEST_20160120",
 "ConversionSoftware": "dcm2niix",
 "ConversionSoftwareVersion": "v1.0.20180622 GCC4.9.2",
 "DerivedVendorReportedEchoSpacing": 0.000539986,
 "DeviceSerialNumber": "166078",
 "DwellTime": 2.1e-06,
 "EchoTime": 0.034,
 "EchoTrainLength": 100,
 "EffectiveEchoSpacing": 0.000539986,
 "FlipAngle": 90,
 "ImageOrientationPatientDICOM": [
  1,
  -0.000158747,
  -0.000795365,
  -3.68357e-08,
  0.980649,
  -0.195774
 ],
 "ImageType": [
  "ORIGINAL",
  "PRIMARY",
  "M",
  "ND",
  "MOSAIC"
 ],
 "InPlanePhaseEncodingDirectionDICOM": "COL",
 "InstitutionAddress": "Street_StreetNo_Bei_Jing_District_CN_ZIP",
 "InstitutionName": "BeiJing_Normal_University",
 "InstitutionalDepartmentName": "Department",
 "MRAcquisitionType": "2D",
 "MagneticFieldStrength": 3,
 "Manufacturer": "Siemens",
 "ManufacturersModelName": "Prisma",
 "Modality": "MR",
 "MultibandAccelerationFactor": 3,
 "PartialFourier": 1,
 "PatientPosition": "HFS",
 "PercentPhaseFOV": 100,
 "PhaseEncodingDirection": "j-",
 "PhaseEncodingSteps": 100,
 "PhaseResolution": 1,
 "PixelBandwidth": 2380,
 "ProcedureStepDescription": "BNU_P2018_64CH_Zhen.ZongLei",
 "ProtocolName": "bold_100x100_s3_2x2x2_static_test_241",
 "PulseSequenceDetails": "%SiemensSeq%_ep2d_bold",
 "ReceiveCoilActiveElements": "HC1-7;NC1",
 "ReceiveCoilName": "HeadNeck_64",
 "ReconMatrixPE": 100,
 "RepetitionTime": 2,
 "SAR": 0.0772336,
 "ScanOptions": "FS",
 "ScanningSequence": "EP",
 "SequenceName": "_epfid2d1_100",
 "SequenceVariant": "SK",
 "SeriesDescription": "bold_100x100_s3_2x2x2_static_test_241",
 "SeriesNumber": 14,
 "ShimSetting": [
  -5456,
  -11488,
  -1248,
  388,
  -33,
  -219,
  -155,
  57
 ],
 "SliceThickness": 2,
 "SliceTiming": [
  1.4825,
  0,
  0.9875,
  0.0825,
  1.07,
  0.165,
  1.1525,
  0.2475,
  1.235,
  0.33,
  1.3175,
  0.4125,
  1.4,
  0.5775,
  1.565,
  0.66,
  1.6475,
  0.7425,
  1.73,
  0.825,
  1.8125,
  0.905,
  1.895,
  0.495,
  1.4825,
  0,
  0.9875,
  0.0825,
  1.07,
  0.165,
  1.1525,
  0.2475,
  1.235,
  0.33,
  1.3175,
  0.4125,
  1.4,
  0.5775,
  1.565,
  0.66,
  1.6475,
  0.7425,
  1.73,
  0.825,
  1.8125,
  0.905,
  1.895,
  0.495,
  1.4825,
  0,
  0.9875,
  0.0825,
  1.07,
  0.165,
  1.1525,
  0.2475,
  1.235,
  0.33,
  1.3175,
  0.4125,
  1.4,
  0.5775,
  1.565,
  0.66,
  1.6475,
  0.7425,
  1.73,
  0.825,
  1.8125,
  0.905,
  1.895,
  0.495
 ],
 "SoftwareVersions": "syngo_MR_E11",
 "SpacingBetweenSlices": 2,
 "StationName": "AWP166078",
 "TaskName": "coco",
 "TotalReadoutTime": 0.0534586,
 "TxRefAmp": 222.948,
 "dcmmeta_affine": [
  [
   -1.9999992847442627,
   -7.367145116177198e-08,
   -0.0016221044352278113,
   100.8614501953125
  ],
  [
   0.0003174941521137953,
   1.9612979888916016,
   -0.3915485441684723,
   -84.0661392211914
  ],
  [
   -0.001590729458257556,
   0.39154866337776184,
   1.9612972736358643,
   -78.90291595458984
  ],
  [
   0.0,
   0.0,
   0.0,
   1.0
  ]
 ],
 "dcmmeta_reorient_transform": [
  [
   0.0,
   -1.0,
   0.0,
   99.0
  ],
  [
   1.0,
   0.0,
   0.0,
   0.0
  ],
  [
   0.0,
   0.0,
   1.0,
   0.0
  ],
  [
   0.0,
   0.0,
   0.0,
   1.0
  ]
 ],
 "dcmmeta_shape": [
  100,
  100,
  72,
  241
 ],
 "dcmmeta_slice_dim": 2,
 "dcmmeta_version": 0.6,
 "global": {
  "const": {
   "AcquisitionMatrix": [
    100,
    0,
    0,
    100
   ],
   "AngioFlag": "N",
   "BitsAllocated": 16,
   "BitsStored": 12,
   "BodyPartExamined": "BRAIN",
   "Columns": 900,
   "EchoNumbers": 1,
   "EchoTime": 34.0,
   "EchoTrainLength": 100,
   "FlipAngle": 90.0,
   "HighBit": 11,
   "ImageOrientationPatient": [
    0.9999996710971,
    -0.0001587470798,
    -0.0007953647299,
    -3.6835727e-08,
    0.98064897486101,
    -0.1957743295329
   ],
   "ImagePositionPatient": [
    -900.86115005801,
    -894.49454114663,
    117.11615882699
   ],
   "ImageType": [
    "ORIGINAL",
    "PRIMARY",
    "M",
    "ND",
    "MOSAIC"
   ],
   "ImagedNucleus": "1H",
   "ImagingFrequency": 123.257749,
   "InPlanePhaseEncodingDirection": "COL",
   "MRAcquisitionType": "2D",
   "MagneticFieldStrength": 3.0,
   "Manufacturer": "SIEMENS",
   "ManufacturerModelName": "Prisma",
   "Modality": "MR",
   "NumberOfAverages": 1.0,
   "NumberOfPhaseEncodingSteps": 100,
   "PercentPhaseFieldOfView": 100.0,
   "PercentSampling": 100.0,
   "PerformedProcedureStepStartTime": "125038.673000",
   "PhotometricInterpretation": "MONOCHROME2",
   "PixelBandwidth": 2380.0,
   "PixelRepresentation": 0,
   "PixelSpacing": [
    2.0,
    2.0
   ],
   "ProtocolName": "bold_100x100_s3_2x2x2_static_test_241",
   "RepetitionTime": 2000.0,
   "Rows": 900,
   "SAR": 0.077233633302,
   "SamplesPerPixel": 1,
   "ScanOptions": "FS",
   "ScanningSequence": "EP",
   "SequenceName": "*epfid2d1_100",
   "SequenceVariant": "SK",
   "SeriesDescription": "bold_100x100_s3_2x2x2_static_test_241",
   "SeriesNumber": 14,
   "SeriesTime": "142704.386000",
   "SliceLocation": -60.999853601399,
   "SliceThickness": 2.0,
   "SmallestImagePixelValue": 0,
   "SoftwareVersions": "syngo MR E11",
   "SpacingBetweenSlices": 2.0000000129148,
   "SpecificCharacterSet": "ISO_IR 100",
   "StudyID": "1",
   "StudyTime": "125038.603000",
   "TransmitCoilName": "Body",
   "VariableFlipAngleFlag": "N",
   "WindowCenterWidthExplanation": "Algo1",
   "dBdt": 0.0
  },
  "slices": {}
 },
 "time": {
  "samples": {
   "AcquisitionNumber": [
    1,
    2,
    3,
    4,
    5,
    6,
    7,
    8,
    9,
    10,
    11,
    12,
    13,
    14,
    15,
    16,
    17,
    18,
    19,
    20,
    21,
    22,
    23,
    24,
    25,
    26,
    27,
    28,
    29,
    30,
    31,
    32,
    33,
    34,
    35,
    36,
    37,
    38,
    39,
    40,
    41,
    42,
    43,
    44,
    45,
    46,
    47,
    48,
    49,
    50,
    51,
    52,
    53,
    54,
    55,
    56,
    57,
    58,
    59,
    60,
    61,
    62,
    63,
    64,
    65,
    66,
    67,
    68,
    69,
    70,
    71,
    72,
    73,
    74,
    75,
    76,
    77,
    78,
    79,
    80,
    81,
    82,
    83,
    84,
    85,
    86,
    87,
    88,
    89,
    90,
    91,
    92,
    93,
    94,
    95,
    96,
    97,
    98,
    99,
    100,
    101,
    102,
    103,
    104,
    105,
    106,
    107,
    108,
    109,
    110,
    111,
    112,
    113,
    114,
    115,
    116,
    117,
    118,
    119,
    120,
    121,
    122,
    123,
    124,
    125,
    126,
    127,
    128,
    129,
    130,
    131,
    132,
    133,
    134,
    135,
    136,
    137,
    138,
    139,
    140,
    141,
    142,
    143,
    144,
    145,
    146,
    147,
    148,
    149,
    150,
    151,
    152,
    153,
    154,
    155,
    156,
    157,
    158,
    159,
    160,
    161,
    162,
    163,
    164,
    165,
    166,
    167,
    168,
    169,
    170,
    171,
    172,
    173,
    174,
    175,
    176,
    177,
    178,
    179,
    180,
    181,
    182,
    183,
    184,
    185,
    186,
    187,
    188,
    189,
    190,
    191,
    192,
    193,
    194,
    195,
    196,
    197,
    198,
    199,
    200,
    201,
    202,
    203,
    204,
    205,
    206,
    207,
    208,
    209,
    210,
    211,
    212,
    213,
    214,
    215,
    216,
    217,
    218,
    219,
    220,
    221,
    222,
    223,
    224,
    225,
    226,
    227,
    228,
    229,
    230,
    231,
    232,
    233,
    234,
    235,
    236,
    237,
    238,
    239,
    240,
    241
   ],
   "AcquisitionTime": [
    "142701.902500",
    "142703.902500",
    "142705.902500",
    "142707.902500",
    "142709.902500",
    "142711.902500",
    "142713.902500",
    "142715.902500",
    "142717.902500",
    "142719.902500",
    "142721.902500",
    "142723.902500",
    "142725.902500",
    "142727.902500",
    "142729.902500",
    "142731.902500",
    "142733.902500",
    "142735.902500",
    "142737.902500",
    "142739.902500",
    "142741.902500",
    "142743.902500",
    "142745.902500",
    "142747.902500",
    "142749.902500",
    "142751.902500",
    "142753.902500",
    "142755.902500",
    "142757.902500",
    "142759.902500",
    "142801.902500",
    "142803.902500",
    "142805.902500",
    "142807.902500",
    "142809.902500",
    "142811.902500",
    "142813.902500",
    "142815.902500",
    "142817.902500",
    "142819.902500",
    "142821.902500",
    "142823.902500",
    "142825.902500",
    "142827.902500",
    "142829.902500",
    "142831.902500",
    "142833.902500",
    "142835.902500",
    "142837.902500",
    "142839.902500",
    "142841.902500",
    "142843.902500",
    "142845.902500",
    "142847.902500",
    "142849.902500",
    "142851.902500",
    "142853.902500",
    "142855.902500",
    "142857.902500",
    "142859.902500",
    "142901.902500",
    "142903.902500",
    "142905.902500",
    "142907.902500",
    "142909.902500",
    "142911.902500",
    "142913.902500",
    "142915.902500",
    "142917.902500",
    "142919.902500",
    "142921.902500",
    "142923.902500",
    "142925.902500",
    "142927.902500",
    "142929.902500",
    "142931.902500",
    "142933.902500",
    "142935.902500",
    "142937.902500",
    "142939.902500",
    "142941.902500",
    "142943.902500",
    "142945.902500",
    "142947.902500",
    "142949.902500",
    "142951.902500",
    "142953.902500",
    "142955.902500",
    "142957.902500",
    "142959.902500",
    "143001.902500",
    "143003.902500",
    "143005.902500",
    "143007.902500",
    "143009.902500",
    "143011.902500",
    "143013.902500",
    "143015.902500",
    "143017.902500",
    "143019.902500",
    "143021.902500",
    "143023.902500",
    "143025.902500",
    "143027.902500",
    "143029.902500",
    "143031.902500",
    "143033.902500",
    "143035.902500",
    "143037.902500",
    "143039.902500",
    "143041.902500",
    "143043.902500",
    "143045.902500",
    "143047.902500",
    "143049.902500",
    "143051.902500",
    "143053.902500",
    "143055.902500",
    "143057.902500",
    "143059.902500",
    "143101.902500",
    "143103.902500",
    "143105.902500",
    "143107.902500",
    "143109.902500",
    "143111.902500",
    "143113.902500",
    "143115.902500",
    "143117.902500",
    "143119.902500",
    "143121.902500",
    "143123.902500",
    "143125.902500",
    "143127.902500",
    "143129.902500",
    "143131.902500",
    "143133.902500",
    "143135.902500",
    "143137.902500",
    "143139.902500",
    "143141.902500",
    "143143.902500",
    "143145.902500",
    "143147.902500",
    "143149.902500",
    "143151.902500",
    "143153.902500",
    "143155.902500",
    "143157.902500",
    "143159.902500",
    "143201.902500",
    "143203.902500",
    "143205.902500",
    "143207.902500",
    "143209.902500",
    "143211.902500",
    "143213.902500",
    "143215.902500",
    "143217.902500",
    "143219.902500",
    "143221.902500",
    "143223.902500",
    "143225.902500",
    "143227.902500",
    "143229.902500",
    "143231.902500",
    "143233.902500",
    "143235.902500",
    "143237.902500",
    "143239.902500",
    "143241.902500",
    "143243.902500",
    "143245.902500",
    "143247.902500",
    "143249.902500",
    "143251.902500",
    "143253.902500",
    "143255.902500",
    "143257.902500",
    "143259.902500",
    "143301.902500",
    "143303.902500",
    "143305.902500",
    "143307.902500",
    "143309.902500",
    "143311.902500",
    "143313.902500",
    "143315.902500",
    "143317.902500",
    "143319.902500",
    "143321.902500",
    "143323.902500",
    "143325.902500",
    "143327.902500",
    "143329.902500",
    "143331.902500",
    "143333.902500",
    "143335.902500",
    "143337.902500",
    "143339.902500",
    "143341.902500",
    "143343.902500",
    "143345.902500",
    "143347.902500",
    "143349.902500",
    "143351.902500",
    "143353.902500",
    "143355.902500",
    "143357.902500",
    "143359.902500",
    "143401.902500",
    "143403.902500",
    "143405.902500",
    "143407.902500",
    "143409.902500",
    "143411.902500",
    "143413.902500",
    "143415.902500",
    "143417.902500",
    "143419.902500",
    "143421.902500",
    "143423.902500",
    "143425.902500",
    "143427.902500",
    "143429.902500",
    "143431.902500",
    "143433.902500",
    "143435.902500",
    "143437.902500",
    "143439.902500",
    "143441.902500",
    "143443.902500",
    "143445.902500",
    "143447.902500",
    "143449.902500",
    "143451.902500",
    "143453.902500",
    "143455.902500",
    "143457.902500",
    "143459.902500",
    "143501.902500"
   ],
   "ContentTime": [
    "142704.389000",
    "142705.885000",
    "142707.884000",
    "142709.883000",
    "142711.883000",
    "142713.883000",
    "142715.883000",
    "142717.884000",
    "142719.884000",
    "142721.885000",
    "142723.885000",
    "142725.884000",
    "142727.883000",
    "142729.884000",
    "142731.884000",
    "142733.883000",
    "142735.884000",
    "142737.884000",
    "142739.885000",
    "142741.885000",
    "142743.883000",
    "142745.883000",
    "142747.884000",
    "142749.884000",
    "142751.884000",
    "142753.884000",
    "142755.884000",
    "142757.884000",
    "142759.885000",
    "142802.384000",
    "142803.884000",
    "142805.883000",
    "142807.884000",
    "142809.885000",
    "142811.885000",
    "142813.884000",
    "142815.885000",
    "142817.884000",
    "142819.883000",
    "142821.884000",
    "142823.883000",
    "142825.883000",
    "142827.885000",
    "142829.884000",
    "142831.885000",
    "142833.885000",
    "142835.883000",
    "142837.884000",
    "142839.884000",
    "142841.884000",
    "142843.884000",
    "142845.885000",
    "142847.885000",
    "142849.884000",
    "142851.885000",
    "142854.383000",
    "142855.883000",
    "142857.883000",
    "142859.884000",
    "142901.885000",
    "142903.885000",
    "142905.885000",
    "142907.884000",
    "142909.885000",
    "142911.883000",
    "142913.884000",
    "142915.883000",
    "142917.883000",
    "142919.885000",
    "142921.884000",
    "142923.885000",
    "142925.884000",
    "142927.883000",
    "142929.884000",
    "142931.884000",
    "142933.883000",
    "142935.884000",
    "142937.885000",
    "142939.884000",
    "142941.884000",
    "142943.885000",
    "142945.883000",
    "142947.884000",
    "142949.884000",
    "142951.883000",
    "142953.885000",
    "142955.885000",
    "142957.885000",
    "142959.885000",
    "143001.884000",
    "143003.883000",
    "143005.884000",
    "143007.883000",
    "143009.884000",
    "143011.884000",
    "143013.885000",
    "143015.885000",
    "143017.885000",
    "143019.884000",
    "143021.884000",
    "143023.884000",
    "143025.883000",
    "143027.883000",
    "143029.885000",
    "143031.885000",
    "143033.885000",
    "143035.885000",
    "143037.884000",
    "143039.884000",
    "143041.884000",
    "143043.883000",
    "143045.883000",
    "143047.885000",
    "143049.884000",
    "143051.885000",
    "143053.884000",
    "143055.883000",
    "143057.883000",
    "143059.883000",
    "143101.883000",
    "143103.885000",
    "143105.884000",
    "143107.884000",
    "143109.884000",
    "143111.884000",
    "143113.883000",
    "143115.883000",
    "143118.383000",
    "143119.883000",
    "143121.884000",
    "143123.884000",
    "143125.884000",
    "143127.885000",
    "143129.885000",
    "143131.884000",
    "143133.883000",
    "143135.884000",
    "143137.884000",
    "143139.885000",
    "143141.884000",
    "143143.884000",
    "143145.885000",
    "143147.883000",
    "143149.883000",
    "143151.884000",
    "143153.884000",
    "143155.883000",
    "143157.885000",
    "143159.884000",
    "143201.885000",
    "143203.885000",
    "143205.884000",
    "143207.883000",
    "143209.884000",
    "143211.884000",
    "143213.885000",
    "143215.884000",
    "143217.884000",
    "143219.885000",
    "143221.885000",
    "143223.883000",
    "143225.884000",
    "143227.884000",
    "143229.883000",
    "143231.884000",
    "143233.885000",
    "143235.884000",
    "143237.885000",
    "143239.885000",
    "143241.884000",
    "143243.884000",
    "143245.884000",
    "143247.884000",
    "143249.885000",
    "143251.885000",
    "143253.884000",
    "143255.885000",
    "143257.884000",
    "143259.883000",
    "143301.883000",
    "143303.883000",
    "143305.884000",
    "143307.884000",
    "143309.884000",
    "143311.884000",
    "143313.884000",
    "143315.883000",
    "143317.883000",
    "143319.884000",
    "143321.884000",
    "143323.884000",
    "143325.884000",
    "143327.885000",
    "143329.885000",
    "143331.885000",
    "143333.883000",
    "143335.884000",
    "143337.884000",
    "143339.883000",
    "143341.884000",
    "143343.884000",
    "143345.884000",
    "143347.885000",
    "143349.884000",
    "143351.883000",
    "143353.883000",
    "143355.883000",
    "143357.883000",
    "143359.885000",
    "143401.885000",
    "143403.885000",
    "143405.885000",
    "143407.883000",
    "143409.884000",
    "143411.884000",
    "143413.883000",
    "143415.884000",
    "143417.884000",
    "143419.885000",
    "143421.884000",
    "143423.885000",
    "143425.883000",
    "143427.884000",
    "143429.884000",
    "143431.884000",
    "143433.885000",
    "143435.884000",
    "143437.884000",
    "143439.885000",
    "143441.885000",
    "143443.883000",
    "143445.884000",
    "143447.884000",
    "143449.884000",
    "143451.884000",
    "143453.885000",
    "143455.884000",
    "143457.884000",
    "143459.884000",
    "143501.883000",
    "143503.754000"
   ],
   "InstanceCreationTime": [
    "142704.389000",
    "142705.885000",
    "142707.884000",
    "142709.883000",
    "142711.883000",
    "142713.883000",
    "142715.883000",
    "142717.884000",
    "142719.884000",
    "142721.885000",
    "142723.885000",
    "142725.884000",
    "142727.883000",
    "142729.884000",
    "142731.884000",
    "142733.883000",
    "142735.884000",
    "142737.884000",
    "142739.885000",
    "142741.885000",
    "142743.883000",
    "142745.883000",
    "142747.884000",
    "142749.884000",
    "142751.884000",
    "142753.884000",
    "142755.884000",
    "142757.884000",
    "142759.885000",
    "142802.384000",
    "142803.884000",
    "142805.883000",
    "142807.884000",
    "142809.885000",
    "142811.885000",
    "142813.884000",
    "142815.885000",
    "142817.884000",
    "142819.883000",
    "142821.884000",
    "142823.883000",
    "142825.883000",
    "142827.885000",
    "142829.884000",
    "142831.885000",
    "142833.885000",
    "142835.883000",
    "142837.884000",
    "142839.884000",
    "142841.884000",
    "142843.884000",
    "142845.885000",
    "142847.885000",
    "142849.884000",
    "142851.885000",
    "142854.383000",
    "142855.883000",
    "142857.883000",
    "142859.884000",
    "142901.885000",
    "142903.885000",
    "142905.885000",
    "142907.884000",
    "142909.885000",
    "142911.883000",
    "142913.884000",
    "142915.883000",
    "142917.883000",
    "142919.885000",
    "142921.884000",
    "142923.885000",
    "142925.884000",
    "142927.883000",
    "142929.884000",
    "142931.884000",
    "142933.883000",
    "142935.884000",
    "142937.885000",
    "142939.884000",
    "142941.884000",
    "142943.885000",
    "142945.883000",
    "142947.884000",
    "142949.884000",
    "142951.883000",
    "142953.885000",
    "142955.885000",
    "142957.885000",
    "142959.885000",
    "143001.884000",
    "143003.883000",
    "143005.884000",
    "143007.883000",
    "143009.884000",
    "143011.884000",
    "143013.885000",
    "143015.885000",
    "143017.885000",
    "143019.884000",
    "143021.884000",
    "143023.884000",
    "143025.883000",
    "143027.883000",
    "143029.885000",
    "143031.885000",
    "143033.885000",
    "143035.885000",
    "143037.884000",
    "143039.884000",
    "143041.884000",
    "143043.883000",
    "143045.883000",
    "143047.885000",
    "143049.884000",
    "143051.885000",
    "143053.884000",
    "143055.883000",
    "143057.883000",
    "143059.883000",
    "143101.883000",
    "143103.885000",
    "143105.884000",
    "143107.884000",
    "143109.884000",
    "143111.884000",
    "143113.883000",
    "143115.883000",
    "143118.383000",
    "143119.883000",
    "143121.884000",
    "143123.884000",
    "143125.884000",
    "143127.885000",
    "143129.885000",
    "143131.884000",
    "143133.883000",
    "143135.884000",
    "143137.884000",
    "143139.885000",
    "143141.884000",
    "143143.884000",
    "143145.885000",
    "143147.883000",
    "143149.883000",
    "143151.884000",
    "143153.884000",
    "143155.883000",
    "143157.885000",
    "143159.884000",
    "143201.885000",
    "143203.885000",
    "143205.884000",
    "143207.883000",
    "143209.884000",
    "143211.884000",
    "143213.885000",
    "143215.884000",
    "143217.884000",
    "143219.885000",
    "143221.885000",
    "143223.883000",
    "143225.884000",
    "143227.884000",
    "143229.883000",
    "143231.884000",
    "143233.885000",
    "143235.884000",
    "143237.885000",
    "143239.885000",
    "143241.884000",
    "143243.884000",
    "143245.884000",
    "143247.884000",
    "143249.885000",
    "143251.885000",
    "143253.884000",
    "143255.885000",
    "143257.884000",
    "143259.883000",
    "143301.883000",
    "143303.883000",
    "143305.884000",
    "143307.884000",
    "143309.884000",
    "143311.884000",
    "143313.884000",
    "143315.883000",
    "143317.883000",
    "143319.884000",
    "143321.884000",
    "143323.884000",
    "143325.884000",
    "143327.885000",
    "143329.885000",
    "143331.885000",
    "143333.883000",
    "143335.884000",
    "143337.884000",
    "143339.883000",
    "143341.884000",
    "143343.884000",
    "143345.884000",
    "143347.885000",
    "143349.884000",
    "143351.883000",
    "143353.883000",
    "143355.883000",
    "143357.883000",
    "143359.885000",
    "143401.885000",
    "143403.885000",
    "143405.885000",
    "143407.883000",
    "143409.884000",
    "143411.884000",
    "143413.883000",
    "143415.884000",
    "143417.884000",
    "143419.885000",
    "143421.884000",
    "143423.885000",
    "143425.883000",
    "143427.884000",
    "143429.884000",
    "143431.884000",
    "143433.885000",
    "143435.884000",
    "143437.884000",
    "143439.885000",
    "143441.885000",
    "143443.883000",
    "143445.884000",
    "143447.884000",
    "143449.884000",
    "143451.884000",
    "143453.885000",
    "143455.884000",
    "143457.884000",
    "143459.884000",
    "143501.883000",
    "143503.754000"
   ],
   "InstanceNumber": [
    1,
    2,
    3,
    4,
    5,
    6,
    7,
    8,
    9,
    10,
    11,
    12,
    13,
    14,
    15,
    16,
    17,
    18,
    19,
    20,
    21,
    22,
    23,
    24,
    25,
    26,
    27,
    28,
    29,
    30,
    31,
    32,
    33,
    34,
    35,
    36,
    37,
    38,
    39,
    40,
    41,
    42,
    43,
    44,
    45,
    46,
    47,
    48,
    49,
    50,
    51,
    52,
    53,
    54,
    55,
    56,
    57,
    58,
    59,
    60,
    61,
    62,
    63,
    64,
    65,
    66,
    67,
    68,
    69,
    70,
    71,
    72,
    73,
    74,
    75,
    76,
    77,
    78,
    79,
    80,
    81,
    82,
    83,
    84,
    85,
    86,
    87,
    88,
    89,
    90,
    91,
    92,
    93,
    94,
    95,
    96,
    97,
    98,
    99,
    100,
    101,
    102,
    103,
    104,
    105,
    106,
    107,
    108,
    109,
    110,
    111,
    112,
    113,
    114,
    115,
    116,
    117,
    118,
    119,
    120,
    121,
    122,
    123,
    124,
    125,
    126,
    127,
    128,
    129,
    130,
    131,
    132,
    133,
    134,
    135,
    136,
    137,
    138,
    139,
    140,
    141,
    142,
    143,
    144,
    145,
    146,
    147,
    148,
    149,
    150,
    151,
    152,
    153,
    154,
    155,
    156,
    157,
    158,
    159,
    160,
    161,
    162,
    163,
    164,
    165,
    166,
    167,
    168,
    169,
    170,
    171,
    172,
    173,
    174,
    175,
    176,
    177,
    178,
    179,
    180,
    181,
    182,
    183,
    184,
    185,
    186,
    187,
    188,
    189,
    190,
    191,
    192,
    193,
    194,
    195,
    196,
    197,
    198,
    199,
    200,
    201,
    202,
    203,
    204,
    205,
    206,
    207,
    208,
    209,
    210,
    211,
    212,
    213,
    214,
    215,
    216,
    217,
    218,
    219,
    220,
    221,
    222,
    223,
    224,
    225,
    226,
    227,
    228,
    229,
    230,
    231,
    232,
    233,
    234,
    235,
    236,
    237,
    238,
    239,
    240,
    241
   ],
   "LargestImagePixelValue": [
    3556,
    3514,
    3523,
    3506,
    3505,
    3486,
    3482,
    3510,
    3525,
    3491,
    3499,
    3497,
    3495,
    3512,
    3507,
    3517,
    3475,
    3444,
    3478,
    3458,
    3493,
    3458,
    3431,
    3464,
    3452,
    3498,
    3434,
    3422,
    3425,
    3458,
    3475,
    3441,
    3424,
    3465,
    3523,
    3465,
    3433,
    3452,
    3439,
    3448,
    3474,
    3469,
    3478,
    3480,
    3482,
    3497,
    3435,
    3437,
    3504,
    3460,
    3498,
    3488,
    3509,
    3502,
    3472,
    3487,
    3517,
    3514,
    3528,
    3563,
    3530,
    3530,
    3535,
    3535,
    3547,
    3530,
    3534,
    3536,
    3505,
    3505,
    3527,
    3440,
    3500,
    3503,
    3469,
    3532,
    3521,
    3520,
    3567,
    3509,
    3519,
    3485,
    3476,
    3501,
    3473,
    3426,
    3511,
    3455,
    3455,
    3515,
    3495,
    3488,
    3502,
    3504,
    3437,
    3497,
    3470,
    3474,
    3528,
    3501,
    3456,
    3500,
    3500,
    3475,
    3501,
    3517,
    3530,
    3489,
    3483,
    3489,
    3525,
    3493,
    3444,
    3488,
    3471,
    3466,
    3532,
    3503,
    3510,
    3538,
    3553,
    3525,
    3556,
    3536,
    3499,
    3519,
    3501,
    3474,
    3485,
    3482,
    3488,
    3508,
    3501,
    3511,
    3493,
    3483,
    3464,
    3447,
    3492,
    3511,
    3546,
    3511,
    3486,
    3510,
    3484,
    3489,
    3477,
    3463,
    3481,
    3508,
    3498,
    3526,
    3478,
    3479,
    3504,
    3516,
    3467,
    3516,
    3542,
    3504,
    3493,
    3492,
    3475,
    3480,
    3530,
    3509,
    3485,
    3481,
    3501,
    3466,
    3469,
    3491,
    3484,
    3458,
    3475,
    3483,
    3445,
    3454,
    3490,
    3471,
    3461,
    3506,
    3503,
    3478,
    3454,
    3480,
    3472,
    3488,
    3524,
    3512,
    3449,
    3438,
    3475,
    3463,
    3462,
    3446,
    3426,
    3480,
    3431,
    3450,
    3508,
    3500,
    3489,
    3490,
    3499,
    3450,
    3472,
    3455,
    3478,
    3473,
    3450,
    3440,
    3481,
    3509,
    3533,
    3468,
    3466,
    3476,
    3483,
    3454,
    3504,
    3457,
    3493,
    3503,
    3463,
    3457,
    3505,
    3520,
    3497,
    3481,
    3467,
    3497,
    3488,
    3480,
    3487,
    3479,
    3483,
    3461,
    3493,
    3520,
    3482
   ],
   "WindowCenter": [
    825.0,
    823.0,
    825.0,
    825.0,
    824.0,
    823.0,
    824.0,
    824.0,
    824.0,
    822.0,
    822.0,
    822.0,
    822.0,
    823.0,
    822.0,
    822.0,
    821.0,
    820.0,
    820.0,
    820.0,
    821.0,
    821.0,
    820.0,
    819.0,
    819.0,
    820.0,
    820.0,
    820.0,
    821.0,
    821.0,
    821.0,
    820.0,
    820.0,
    821.0,
    821.0,
    820.0,
    819.0,
    819.0,
    819.0,
    818.0,
    818.0,
    818.0,
    819.0,
    820.0,
    820.0,
    820.0,
    819.0,
    820.0,
    821.0,
    821.0,
    822.0,
    823.0,
    823.0,
    822.0,
    821.0,
    821.0,
    821.0,
    822.0,
    821.0,
    821.0,
    821.0,
    821.0,
    821.0,
    821.0,
    821.0,
    821.0,
    821.0,
    820.0,
    820.0,
    820.0,
    820.0,
    819.0,
    818.0,
    818.0,
    818.0,
    819.0,
    819.0,
    819.0,
    819.0,
    819.0,
    820.0,
    820.0,
    820.0,
    820.0,
    818.0,
    817.0,
    818.0,
    818.0,
    818.0,
    819.0,
    819.0,
    819.0,
    819.0,
    819.0,
    818.0,
    818.0,
    819.0,
    820.0,
    820.0,
    820.0,
    820.0,
    820.0,
    819.0,
    819.0,
    820.0,
    821.0,
    820.0,
    819.0,
    819.0,
    819.0,
    820.0,
    819.0,
    818.0,
    818.0,
    818.0,
    819.0,
    819.0,
    819.0,
    819.0,
    820.0,
    821.0,
    820.0,
    821.0,
    821.0,
    820.0,
    820.0,
    819.0,
    819.0,
    819.0,
    820.0,
    820.0,
    821.0,
    820.0,
    820.0,
    819.0,
    819.0,
    819.0,
    819.0,
    820.0,
    820.0,
    820.0,
    820.0,
    820.0,
    820.0,
    820.0,
    820.0,
    820.0,
    819.0,
    819.0,
    819.0,
    819.0,
    819.0,
    819.0,
    819.0,
    819.0,
    819.0,
    818.0,
    819.0,
    820.0,
    820.0,
    818.0,
    818.0,
    818.0,
    820.0,
    819.0,
    818.0,
    818.0,
    818.0,
    818.0,
    817.0,
    818.0,
    818.0,
    819.0,
    819.0,
    820.0,
    819.0,
    819.0,
    819.0,
    819.0,
    818.0,
    819.0,
    819.0,
    819.0,
    818.0,
    818.0,
    818.0,
    820.0,
    819.0,
    820.0,
    819.0,
    817.0,
    818.0,
    820.0,
    819.0,
    817.0,
    817.0,
    817.0,
    818.0,
    818.0,
    818.0,
    819.0,
    819.0,
    818.0,
    819.0,
    820.0,
    820.0,
    820.0,
    819.0,
    820.0,
    820.0,
    819.0,
    818.0,
    818.0,
    820.0,
    821.0,
    820.0,
    820.0,
    820.0,
    819.0,
    819.0,
    820.0,
    822.0,
    821.0,
    820.0,
    819.0,
    820.0,
    820.0,
    821.0,
    821.0,
    820.0,
    819.0,
    820.0,
