{
  "AcquisitionMatrixPE": 100,
  "AcquisitionNumber": 1,
  "AcquisitionTime": "15:02:28.470000",
  "BandwidthPerPixelPhaseEncode": 18.519,
  "BaseResolution": 100,
  "BodyPartExamined": "BRAIN",
  "ConsistencyInfo": "N4_VE11C_LATEST_20160120",
  "ConversionSoftware": "dcm2niix",
  "ConversionSoftwareVersion": "v1.0.20180622 GCC4.9.2",
  "DerivedVendorReportedEchoSpacing": 0.000539986,
  "DeviceSerialNumber": "166078",
  "DwellTime": 2.1e-06,
  "EchoTime": 0.034,
  "EchoTrainLength": 100,
  "EffectiveEchoSpacing": 0.000539986,
  "FlipAngle": 90,
  "ImageOrientationPatientDICOM": [1, -6.18849e-05, -0.000551236, 5.85096e-08, 0.993769, -0.11146],
  "ImageType": [
    "ORIGINAL",
    "PRIMARY",
    "M",
    "ND",
    "MOSAIC"
],
  "InPlanePhaseEncodingDirectionDICOM": "COL",
  "InstitutionAddress": "Street_StreetNo_Bei_Jing_District_CN_ZIP",
  "InstitutionName": "BeiJing_Normal_University",
  "InstitutionalDepartmentName": "Department",
  "MRAcquisitionType": "2D",
  "MagneticFieldStrength": 3,
  "Manufacturer": "Siemens",
  "ManufacturersModelName": "Prisma",
  "Modality": "MR",
  "MultibandAccelerationFactor": 3,
  "PartialFourier": 1,
  "PatientPosition": "HFS",
  "PercentPhaseFOV": 100,
  "PhaseEncodingDirection": "j-",
  "PhaseEncodingSteps": 100,
  "PhaseResolution": 1,
  "PixelBandwidth": 2380,
  "ProcedureStepDescription": "BNU_P2018_64CH_Zhen.ZongLei",
  "ProtocolName": "bold_100x100_s3_2x2x2_static_256",
  "PulseSequenceDetails": "%SiemensSeq%_ep2d_bold",
  "ReceiveCoilActiveElements": "HC1-7;NC1",
  "ReceiveCoilName": "HeadNeck_64",
  "ReconMatrixPE": 100,
  "RepetitionTime": 2,
  "SAR": 0.0732644,
  "ScanOptions": "FS",
  "ScanningSequence": "EP",
  "SequenceName": "_epfid2d1_100",
  "SequenceVariant": "SK",
  "SeriesDescription": "bold_100x100_s3_2x2x2_static_256",
  "SeriesNumber": 3,
  "ShimSetting": [-5457, -11500, -1274, 523, 19, -181, -86, 58],
  "SliceThickness": 2,
  "SliceTiming": [1.485, 0, 0.99, 0.0825, 1.0725, 0.165, 1.155, 0.2475, 1.2375, 0.33, 1.32, 0.4125, 1.4025, 0.5775, 1.5675, 0.66, 1.65, 0.7425, 1.7325, 0.825, 1.815, 0.9075, 1.8975, 0.495, 1.485, 0, 0.99, 0.0825, 1.0725, 0.165, 1.155, 0.2475, 1.2375, 0.33, 1.32, 0.4125, 1.4025, 0.5775, 1.5675, 0.66, 1.65, 0.7425, 1.7325, 0.825, 1.815, 0.9075, 1.8975, 0.495, 1.485, 0, 0.99, 0.0825, 1.0725, 0.165, 1.155, 0.2475, 1.2375, 0.33, 1.32, 0.4125, 1.4025, 0.5775, 1.5675, 0.66, 1.65, 0.7425, 1.7325, 0.825, 1.815, 0.9075, 1.8975, 0.495],
  "SoftwareVersions": "syngo_MR_E11",
  "SpacingBetweenSlices": 2,
  "StationName": "AWP166078",
  "TaskName": "naturalvision",
  "TotalReadoutTime": 0.0534586,
  "TxRefAmp": 207.787,
  "dcmmeta_affine": [
    [-1.9999996423721313, 1.1701917657092054e-07, -0.0011093973880633712, 99.79715728759766],
    [0.00012376985978335142, 1.9875378608703613, -0.222920224070549, -87.49750518798828],
    [-0.0011024716077372432, 0.2229202538728714, 1.9875375032424927, -75.5267562866211],
    [0.0, 0.0, 0.0, 1.0]
],
  "dcmmeta_reorient_transform": [
    [0.0, -1.0, 0.0, 99.0],
    [1.0, 0.0, 0.0, 0.0],
    [0.0, 0.0, 1.0, 0.0],
    [0.0, 0.0, 0.0, 1.0]
],
  "dcmmeta_shape": [100, 100, 72, 256],
  "dcmmeta_slice_dim": 2,
  "dcmmeta_version": 0.6,
  "global": {
    "const": {
      "AcquisitionMatrix": [100, 0, 0, 100],
      "AngioFlag": "N",
      "BitsAllocated": 16,
      "BitsStored": 12,
      "BodyPartExamined": "BRAIN",
      "Columns": 900,
      "EchoNumbers": 1,
      "EchoTime": 34.0,
      "EchoTrainLength": 100,
      "FlipAngle": 90.0,
      "HighBit": 11,
      "ImageOrientationPatient": [0.99999984615468, -6.18849293e-05, -0.0005512357769, 5.8509588e-08, 0.99376890693687, -0.1114601256302],
      "ImagePositionPatient": [-899.79709088675, -904.23435962465, 36.151434677948],
      "ImageType": [
        "ORIGINAL",
        "PRIMARY",
        "M",
        "ND",
        "MOSAIC"
],
      "ImagedNucleus": "1H",
      "ImagingFrequency": 123.257756,
      "InPlanePhaseEncodingDirection": "COL",
      "MRAcquisitionType": "2D",
      "MagneticFieldStrength": 3.0,
      "Manufacturer": "SIEMENS",
      "ManufacturerModelName": "Prisma",
      "Modality": "MR",
      "NumberOfAverages": 1.0,
      "NumberOfPhaseEncodingSteps": 100,
      "PercentPhaseFieldOfView": 100.0,
      "PercentSampling": 100.0,
      "PerformedProcedureStepStartTime": "145836.729000",
      "PhotometricInterpretation": "MONOCHROME2",
      "PixelBandwidth": 2380.0,
      "PixelRepresentation": 0,
      "PixelSpacing": [2.0, 2.0],
      "ProtocolName": "bold_100x100_s3_2x2x2_static_256",
      "RepetitionTime": 2000.0,
      "Rows": 900,
      "SAR": 0.0732644290803,
      "SamplesPerPixel": 1,
      "ScanOptions": "FS",
      "ScanningSequence": "EP",
      "SequenceName": "*epfid2d1_100",
      "SequenceVariant": "SK",
      "SeriesDescription": "bold_100x100_s3_2x2x2_static_256",
      "SeriesNumber": 3,
      "SeriesTime": "150231.218000",
      "SliceLocation": -65.359009847354,
      "SliceThickness": 2.0,
      "SmallestImagePixelValue": 0,
      "SoftwareVersions": "syngo MR E11",
      "SpacingBetweenSlices": 2.0000000375584,
      "SpecificCharacterSet": "ISO_IR 100",
      "StudyID": "1",
      "StudyTime": "145836.682000",
      "TransmitCoilName": "Body",
      "VariableFlipAngleFlag": "N",
      "WindowCenterWidthExplanation": "Algo1",
      "dBdt": 0.0},
    "slices": {}
  },
  "time": {
    "samples": {
      "AcquisitionNumber": [1, 2, 3, 4, 5, 6, 7, 8, 9, 10, 11, 12, 13, 14, 15, 16, 17, 18, 19, 20, 21, 22, 23, 24, 25, 26, 27, 28, 29, 30, 31, 32, 33, 34, 35, 36, 37, 38, 39, 40, 41, 42, 43, 44, 45, 46, 47, 48, 49, 50, 51, 52, 53, 54, 55, 56, 57, 58, 59, 60, 61, 62, 63, 64, 65, 66, 67, 68, 69, 70, 71, 72, 73, 74, 75, 76, 77, 78, 79, 80, 81, 82, 83, 84, 85, 86, 87, 88, 89, 90, 91, 92, 93, 94, 95, 96, 97, 98, 99, 100, 101, 102, 103, 104, 105, 106, 107, 108, 109, 110, 111, 112, 113, 114, 115, 116, 117, 118, 119, 120, 121, 122, 123, 124, 125, 126, 127, 128, 129, 130, 131, 132, 133, 134, 135, 136, 137, 138, 139, 140, 141, 142, 143, 144, 145, 146, 147, 148, 149, 150, 151, 152, 153, 154, 155, 156, 157, 158, 159, 160, 161, 162, 163, 164, 165, 166, 167, 168, 169, 170, 171, 172, 173, 174, 175, 176, 177, 178, 179, 180, 181, 182, 183, 184, 185, 186, 187, 188, 189, 190, 191, 192, 193, 194, 195, 196, 197, 198, 199, 200, 201, 202, 203, 204, 205, 206, 207, 208, 209, 210, 211, 212, 213, 214, 215, 216, 217, 218, 219, 220, 221, 222, 223, 224, 225, 226, 227, 228, 229, 230, 231, 232, 233, 234, 235, 236, 237, 238, 239, 240, 241, 242, 243, 244, 245, 246, 247, 248, 249, 250, 251, 252, 253, 254, 255, 256],
      "AcquisitionTime": ["150228.470000", "150230.470000", "150232.470000", "150234.470000", "150236.470000", "150238.470000", "150240.470000", "150242.470000", "150244.470000", "150246.470000", "150248.470000", "150250.470000", "150252.470000", "150254.470000", "150256.470000", "150258.470000", "150300.470000", "150302.470000", "150304.470000", "150306.470000", "150308.470000", "150310.470000", "150312.470000", "150314.470000", "150316.470000", "150318.470000", "150320.470000", "150322.470000", "150324.470000", "150326.470000", "150328.470000", "150330.470000", "150332.470000", "150334.470000", "150336.470000", "150338.470000", "150340.470000", "150342.470000", "150344.470000", "150346.470000", "150348.470000", "150350.470000", "150352.470000", "150354.470000", "150356.470000", "150358.470000", "150400.470000", "150402.470000", "150404.470000", "150406.470000", "150408.470000", "150410.470000", "150412.470000", "150414.470000", "150416.470000", "150418.470000", "150420.470000", "150422.470000", "150424.470000", "150426.470000", "150428.470000", "150430.470000", "150432.470000", "150434.470000", "150436.470000", "150438.470000", "150440.470000", "150442.470000", "150444.470000", "150446.470000", "150448.470000", "150450.470000", "150452.470000", "150454.470000", "150456.470000", "150458.470000", "150500.470000", "150502.470000", "150504.470000", "150506.470000", "150508.470000", "150510.470000", "150512.470000", "150514.470000", "150516.470000", "150518.470000", "150520.470000", "150522.470000", "150524.470000", "150526.470000", "150528.470000", "150530.470000", "150532.470000", "150534.470000", "150536.470000", "150538.470000", "150540.470000", "150542.470000", "150544.470000", "150546.470000", "150548.470000", "150550.470000", "150552.470000", "150554.470000", "150556.470000", "150558.470000", "150600.470000", "150602.470000", "150604.470000", "150606.470000", "150608.470000", "150610.470000", "150612.470000", "150614.470000", "150616.470000", "150618.470000", "150620.470000", "150622.470000", "150624.470000", "150626.470000", "150628.470000", "150630.470000", "150632.470000", "150634.470000", "150636.470000", "150638.470000", "150640.470000", "150642.470000", "150644.470000", "150646.470000", "150648.470000", "150650.470000", "150652.470000", "150654.470000", "150656.470000", "150658.470000", "150700.470000", "150702.470000", "150704.470000", "150706.470000", "150708.470000", "150710.470000", "150712.470000", "150714.470000", "150716.470000", "150718.470000", "150720.470000", "150722.470000", "150724.470000", "150726.470000", "150728.470000", "150730.470000", "150732.470000", "150734.470000", "150736.470000", "150738.470000", "150740.470000", "150742.470000", "150744.470000", "150746.470000", "150748.470000", "150750.470000", "150752.470000", "150754.470000", "150756.470000", "150758.470000", "150800.470000", "150802.470000", "150804.470000", "150806.470000", "150808.470000", "150810.470000", "150812.470000", "150814.470000", "150816.470000", "150818.470000", "150820.470000", "150822.470000", "150824.470000", "150826.470000", "150828.470000", "150830.470000", "150832.470000", "150834.470000", "150836.470000", "150838.470000", "150840.470000", "150842.470000", "150844.470000", "150846.470000", "150848.470000", "150850.470000", "150852.470000", "150854.470000", "150856.470000", "150858.470000", "150900.470000", "150902.470000", "150904.470000", "150906.470000", "150908.470000", "150910.470000", "150912.470000", "150914.470000", "150916.470000", "150918.470000", "150920.470000", "150922.470000", "150924.470000", "150926.470000", "150928.470000", "150930.470000", "150932.470000", "150934.470000", "150936.470000", "150938.470000", "150940.470000", "150942.470000", "150944.470000", "150946.470000", "150948.470000", "150950.470000", "150952.470000", "150954.470000", "150956.470000", "150958.470000", "151000.470000", "151002.470000", "151004.470000", "151006.470000", "151008.470000", "151010.470000", "151012.470000", "151014.470000", "151016.470000", "151018.470000", "151020.470000", "151022.470000", "151024.470000", "151026.470000", "151028.470000", "151030.470000", "151032.470000", "151034.470000", "151036.470000", "151038.470000", "151040.470000", "151042.470000", "151044.470000", "151046.470000", "151048.470000", "151050.470000", "151052.470000", "151054.470000", "151056.470000", "151058.470000"],
      "ContentTime": ["150231.222000", "150232.218000", "150234.217000", "150236.217000", "150238.216000", "150240.216000", "150242.217000", "150244.217000", "150246.218000", "150248.218000", "150250.717000", "150252.217000", "150254.717000", "150256.717000", "150258.217000", "150300.217000", "150302.217000", "150304.218000", "150306.217000", "150308.218000", "150310.217000", "150312.217000", "150314.217000", "150316.218000", "150318.717000", "150320.718000", "150322.217000", "150324.218000", "150326.218000", "150328.217000", "150330.716000", "150332.216000", "150334.718000", "150336.217000", "150338.218000", "150340.218000", "150342.718000", "150344.217000", "150346.217000", "150348.717000", "150350.217000", "150352.218000", "150354.218000", "150356.218000", "150358.218000", "150400.218000", "150402.217000", "150404.718000", "150406.217000", "150408.217000", "150410.217000", "150412.217000", "150414.218000", "150416.217000", "150418.717000", "150420.217000", "150422.217000", "150424.216000", "150426.217000", "150428.217000", "150430.217000", "150432.217000", "150434.717000", "150436.217000", "150438.717000", "150440.217000", "150442.217000", "150444.217000", "150446.217000", "150448.217000", "150450.218000", "150452.217000", "150454.218000", "150456.217000", "150458.216000", "150500.216000", "150502.218000", "150504.217000", "150506.217000", "150508.217000", "150510.217000", "150512.718000", "150514.217000", "150516.216000", "150518.218000", "150520.717000", "150522.217000", "150524.217000", "150526.218000", "150528.217000", "150530.218000", "150532.218000", "150534.216000", "150536.217000", "150538.217000", "150540.217000", "150542.217000", "150544.218000", "150546.217000", "150548.217000", "150550.716000", "150552.217000", "150554.718000", "150556.217000", "150558.218000", "150600.218000", "150602.218000", "150604.717000", "150606.717000", "150608.217000", "150610.217000", "150612.217000", "150614.217000", "150616.218000", "150618.217000", "150620.218000", "150622.218000", "150624.217000", "150626.216000", "150628.218000", "150630.218000", "150632.218000", "150634.217000", "150636.218000", "150638.217000", "150640.217000", "150642.217000", "150644.216000", "150646.218000", "150648.218000", "150650.217000", "150652.218000", "150654.218000", "150656.217000", "150658.217000", "150700.217000", "150702.717000", "150704.217000", "150706.217000", "150708.218000", "150710.218000", "150712.218000", "150714.217000", "150716.217000", "150718.216000", "150720.216000", "150722.218000", "150724.717000", "150726.218000", "150728.217000", "150730.717000", "150732.718000", "150734.218000", "150736.216000", "150738.217000", "150740.217000", "150742.217000", "150744.218000", "150746.217000", "150748.218000", "150750.218000", "150752.217000", "150754.216000", "150756.718000", "150758.717000", "150800.218000", "150802.218000", "150804.217000", "150806.217000", "150808.217000", "150810.216000", "150812.216000", "150814.218000", "150816.218000", "150818.218000", "150820.218000", "150822.217000", "150824.217000", "150826.218000", "150828.217000", "150830.217000", "150832.218000", "150834.218000", "150836.218000", "150838.218000", "150840.217000", "150842.217000", "150844.718000", "150846.717000", "150848.218000", "150850.717000", "150852.717000", "150854.218000", "150856.218000", "150858.218000", "150900.217000", "150902.217000", "150904.217000", "150906.227000", "150908.217000", "150910.218000", "150912.217000", "150914.217000", "150916.218000", "150918.217000", "150920.216000", "150922.216000", "150924.718000", "150926.217000", "150928.218000", "150930.218000", "150932.718000", "150934.217000", "150936.218000", "150938.217000", "150940.216000", "150942.217000", "150944.217000", "150946.217000", "150948.218000", "150950.217000", "150952.218000", "150954.218000", "150956.217000", "150958.218000", "151000.217000", "151002.718000", "151004.218000", "151006.218000", "151008.218000", "151010.218000", "151012.217000", "151014.217000", "151016.217000", "151018.218000", "151020.717000", "151022.218000", "151024.218000", "151026.217000", "151028.218000", "151030.217000", "151032.216000", "151034.218000", "151036.217000", "151038.218000", "151040.217000", "151042.717000", "151044.218000", "151046.218000", "151048.217000", "151050.218000", "151052.217000", "151054.718000", "151056.217000", "151058.218000", "151100.120000"],
      "InstanceCreationTime": ["150231.222000", "150232.218000", "150234.217000", "150236.217000", "150238.216000", "150240.216000", "150242.217000", "150244.217000", "150246.218000", "150248.218000", "150250.717000", "150252.217000", "150254.717000", "150256.717000", "150258.217000", "150300.217000", "150302.217000", "150304.218000", "150306.217000", "150308.218000", "150310.217000", "150312.217000", "150314.217000", "150316.218000", "150318.717000", "150320.718000", "150322.217000", "150324.218000", "150326.218000", "150328.217000", "150330.716000", "150332.216000", "150334.718000", "150336.217000", "150338.218000", "150340.218000", "150342.718000", "150344.217000", "150346.217000", "150348.717000", "150350.217000", "150352.218000", "150354.218000", "150356.218000", "150358.218000", "150400.218000", "150402.217000", "150404.718000", "150406.217000", "150408.217000", "150410.217000", "150412.217000", "150414.218000", "150416.217000", "150418.717000", "150420.217000", "150422.217000", "150424.216000", "150426.217000", "150428.217000", "150430.217000", "150432.217000", "150434.717000", "150436.217000", "150438.717000", "150440.217000", "150442.217000", "150444.217000", "150446.217000", "150448.217000", "150450.218000", "150452.217000", "150454.218000", "150456.217000", "150458.216000", "150500.216000", "150502.218000", "150504.217000", "150506.217000", "150508.217000", "150510.217000", "150512.718000", "150514.217000", "150516.216000", "150518.218000", "150520.717000", "150522.217000", "150524.217000", "150526.218000", "150528.217000", "150530.218000", "150532.218000", "150534.216000", "150536.217000", "150538.217000", "150540.217000", "150542.217000", "150544.218000", "150546.217000", "150548.217000", "150550.716000", "150552.217000", "150554.718000", "150556.217000", "150558.218000", "150600.218000", "150602.218000", "150604.717000", "150606.717000", "150608.217000", "150610.217000", "150612.217000", "150614.217000", "150616.218000", "150618.217000", "150620.218000", "150622.218000", "150624.217000", "150626.216000", "150628.218000", "150630.218000", "150632.218000", "150634.217000", "150636.218000", "150638.217000", "150640.217000", "150642.217000", "150644.216000", "150646.218000", "150648.218000", "150650.217000", "150652.218000", "150654.218000", "150656.217000", "150658.217000", "150700.217000", "150702.717000", "150704.217000", "150706.217000", "150708.218000", "150710.218000", "150712.218000", "150714.217000", "150716.217000", "150718.216000", "150720.216000", "150722.218000", "150724.717000", "150726.218000", "150728.217000", "150730.717000", "150732.718000", "150734.218000", "150736.216000", "150738.217000", "150740.217000", "150742.217000", "150744.218000", "150746.217000", "150748.218000", "150750.218000", "150752.217000", "150754.216000", "150756.718000", "150758.717000", "150800.218000", "150802.218000", "150804.217000", "150806.217000", "150808.217000", "150810.216000", "150812.216000", "150814.218000", "150816.218000", "150818.218000", "150820.218000", "150822.217000", "150824.217000", "150826.218000", "150828.217000", "150830.217000", "150832.218000", "150834.218000", "150836.218000", "150838.218000", "150840.217000", "150842.217000", "150844.718000", "150846.717000", "150848.218000", "150850.717000", "150852.717000", "150854.218000", "150856.218000", "150858.218000", "150900.217000", "150902.217000", "150904.217000", "150906.227000", "150908.217000", "150910.218000", "150912.217000", "150914.217000", "150916.218000", "150918.217000", "150920.216000", "150922.216000", "150924.718000", "150926.217000", "150928.218000", "150930.218000", "150932.718000", "150934.217000", "150936.218000", "150938.217000", "150940.216000", "150942.217000", "150944.217000", "150946.217000", "150948.218000", "150950.217000", "150952.218000", "150954.218000", "150956.217000", "150958.218000", "151000.217000", "151002.718000", "151004.218000", "151006.218000", "151008.218000", "151010.218000", "151012.217000", "151014.217000", "151016.217000", "151018.218000", "151020.717000", "151022.218000", "151024.218000", "151026.217000", "151028.218000", "151030.217000", "151032.216000", "151034.218000", "151036.217000", "151038.218000", "151040.217000", "151042.717000", "151044.218000", "151046.218000", "151048.217000", "151050.218000", "151052.217000", "151054.718000", "151056.217000", "151058.218000", "151100.120000"],
      "InstanceNumber": [1, 2, 3, 4, 5, 6, 7, 8, 9, 10, 11, 12, 13, 14, 15, 16, 17, 18, 19, 20, 21, 22, 23, 24, 25, 26, 27, 28, 29, 30, 31, 32, 33, 34, 35, 36, 37, 38, 39, 40, 41, 42, 43, 44, 45, 46, 47, 48, 49, 50, 51, 52, 53, 54, 55, 56, 57, 58, 59, 60, 61, 62, 63, 64, 65, 66, 67, 68, 69, 70, 71, 72, 73, 74, 75, 76, 77, 78, 79, 80, 81, 82, 83, 84, 85, 86, 87, 88, 89, 90, 91, 92, 93, 94, 95, 96, 97, 98, 99, 100, 101, 102, 103, 104, 105, 106, 107, 108, 109, 110, 111, 112, 113, 114, 115, 116, 117, 118, 119, 120, 121, 122, 123, 124, 125, 126, 127, 128, 129, 130, 131, 132, 133, 134, 135, 136, 137, 138, 139, 140, 141, 142, 143, 144, 145, 146, 147, 148, 149, 150, 151, 152, 153, 154, 155, 156, 157, 158, 159, 160, 161, 162, 163, 164, 165, 166, 167, 168, 169, 170, 171, 172, 173, 174, 175, 176, 177, 178, 179, 180, 181, 182, 183, 184, 185, 186, 187, 188, 189, 190, 191, 192, 193, 194, 195, 196, 197, 198, 199, 200, 201, 202, 203, 204, 205, 206, 207, 208, 209, 210, 211, 212, 213, 214, 215, 216, 217, 218, 219, 220, 221, 222, 223, 224, 225, 226, 227, 228, 229, 230, 231, 232, 233, 234, 235, 236, 237, 238, 239, 240, 241, 242, 243, 244, 245, 246, 247, 248, 249, 250, 251, 252, 253, 254, 255, 256],
      "LargestImagePixelValue": [2601, 2541, 2585, 2633, 2701, 2561, 2617, 2498, 2565, 2524, 2538, 2542, 2586, 2515, 2551, 2501, 2513, 2589, 2510, 2584, 2530, 2533, 2588, 2784, 2537, 2619, 2495, 2547, 2630, 2517, 2535, 2558, 2592, 2569, 2545, 2560, 2508, 2532, 2556, 2530, 2571, 2554, 2541, 2549, 2519, 2868, 2558, 2574, 2501, 2510, 2567, 2527, 2578, 2500, 2519, 2512, 2545, 2596, 2538, 2493, 2509, 2806, 2531, 2544, 2559, 2607, 2557, 2502, 2508, 2558, 2503, 2494, 2512, 2555, 2514, 2553, 2536, 2558, 2541, 2516, 2498, 2576, 2536, 2645, 2502, 2554, 2539, 2552, 2552, 2555, 2501, 2533, 2621, 2612, 2523, 2534, 2530, 2604, 2529, 2540, 2529, 2503, 2546, 2490, 2512, 2551, 2568, 2571, 2574, 2511, 2580, 2534, 2502, 2606, 2536, 2526, 2611, 2607, 2564, 2565, 2503, 2627, 2665, 2559, 2530, 2516, 2565, 2527, 2506, 2611, 2552, 2572, 2494, 2541, 2476, 2548, 2550, 2562, 2611, 2617, 2506, 2587, 2491, 2545, 2468, 2855, 2461, 2598, 2592, 2569, 2622, 2487, 2585, 2536, 2605, 2472, 2567, 2459, 2593, 2823, 2578, 2523, 2549, 2480, 2608, 2543, 2563, 2613, 2584, 2581, 2481, 2611, 2515, 2612, 2501, 2579, 2519, 2571, 2526, 2588, 2633, 2541, 2620, 2521, 2551, 2817, 2551, 2515, 2620, 2664, 2540, 2642, 2536, 2587, 2498, 2581, 2601, 2523, 2700, 2646, 2558, 2595, 2567, 2561, 2486, 2581, 2525, 2581, 2526, 2613, 2521, 2537, 2582, 2674, 2521, 2604, 2605, 2614, 2649, 2528, 2679, 2554, 2680, 2516, 2627, 2528, 2585, 2562, 2588, 2546, 2587, 2546, 2574, 2550, 2570, 2533, 2553, 2515, 2575, 2509, 2611, 2534, 2575, 2568, 2602, 2513, 2519, 2533, 2547, 2548, 2531, 2573, 2552, 2566, 2563, 2583],
      "WindowCenter": [740.0, 738.0, 738.0, 738.0, 739.0, 737.0, 737.0, 735.0, 736.0, 735.0, 737.0, 737.0, 738.0, 737.0, 737.0, 736.0, 736.0, 736.0, 736.0, 737.0, 736.0, 736.0, 737.0, 739.0, 737.0, 738.0, 737.0, 737.0, 737.0, 736.0, 736.0, 735.0, 735.0, 734.0, 735.0, 736.0, 736.0, 736.0, 736.0, 736.0, 735.0, 735.0, 734.0, 735.0, 734.0, 737.0, 734.0, 735.0, 735.0, 736.0, 736.0, 735.0, 735.0, 734.0, 735.0, 735.0, 735.0, 736.0, 735.0, 734.0, 734.0, 738.0, 735.0, 735.0, 736.0, 736.0, 735.0, 735.0, 734.0, 734.0, 734.0, 734.0, 735.0, 735.0, 734.0, 734.0, 734.0, 734.0, 734.0, 733.0, 733.0, 734.0, 735.0, 736.0, 735.0, 735.0, 736.0, 736.0, 736.0, 736.0, 735.0, 735.0, 736.0, 735.0, 735.0, 735.0, 735.0, 735.0, 734.0, 734.0, 735.0, 735.0, 735.0, 734.0, 734.0, 735.0, 735.0, 736.0, 736.0, 736.0, 736.0, 735.0, 735.0, 737.0, 738.0, 736.0, 736.0, 736.0, 736.0, 736.0, 735.0, 736.0, 736.0, 735.0, 735.0, 734.0, 735.0, 734.0, 733.0, 735.0, 735.0, 735.0, 733.0, 734.0, 734.0, 735.0, 735.0, 736.0, 737.0, 737.0, 735.0, 736.0, 734.0, 735.0, 734.0, 738.0, 733.0, 736.0, 736.0, 735.0, 736.0, 734.0, 735.0, 736.0, 737.0, 734.0, 735.0, 733.0, 736.0, 738.0, 736.0, 734.0, 735.0, 734.0, 736.0, 735.0, 736.0, 736.0, 735.0, 735.0, 733.0, 736.0, 735.0, 735.0, 733.0, 735.0, 734.0, 734.0, 734.0, 735.0, 736.0, 735.0, 735.0, 733.0, 734.0, 738.0, 736.0, 735.0, 735.0, 736.0, 735.0, 736.0, 735.0, 735.0, 735.0, 736.0, 736.0, 735.0, 737.0, 736.0, 735.0, 735.0, 734.0, 734.0, 733.0, 735.0, 735.0, 735.0, 735.0, 737.0, 736.0, 735.0, 735.0, 736.0, 734.0, 736.0, 736.0, 736.0, 737.0, 735.0, 737.0, 736.0, 737.0, 734.0, 736.0, 735.0, 736.0, 736.0, 736.0, 736.0, 736.0, 736.0, 735.0, 734.0, 735.0, 734.0, 734.0, 733.0, 735.0, 734.0, 734.0, 733.0, 733.0, 733.0, 734.0, 733.0, 733.0, 734.0, 734.0, 733.0, 734.0, 736.0, 736.0, 736.0, 735.0, 735.0],
      "WindowWidth": [1588.0, 1583.0, 1581.0, 1583.0, 1584.0, 1580.0, 1579.0, 1575.0, 1576.0, 1574.0, 1579.0, 1581.0, 1581.0, 1580.0, 1580.0, 1577.0, 1576.0, 1577.0, 1578.0, 1580.0, 1578.0, 1578.0, 1579.0, 1585.0, 1579.0, 1582.0, 1579.0, 1579.0, 1581.0, 1577.0, 1577.0, 1575.0, 1574.0, 1573.0, 1575.0, 1578.0, 1577.0, 1576.0, 1578.0, 1576.0, 1576.0, 1573.0, 1573.0, 1574.0, 1572.0, 1580.0, 1573.0, 1574.0, 1574.0, 1577.0, 1577.0, 1575.0, 1575.0, 1572.0, 1573.0, 1574.0, 1575.0, 1577.0, 1575.0, 1573.0, 1573.0, 1581.0, 1575.0, 1575.0, 1576.0, 1576.0, 1575.0, 1573.0, 1571.0, 1572.0, 1573.0, 1573.0, 1574.0, 1575.0, 1573.0, 1573.0, 1572.0, 1572.0, 1571.0, 1570.0, 1568.0, 1572.0, 1574.0, 1577.0, 1574.0, 1575.0, 1576.0, 1577.0, 1577.0, 1577.0, 1575.0, 1574.0, 1575.0, 1575.0, 1574.0, 1575.0, 1575.0, 1575.0, 1572.0, 1572.0, 1573.0, 1573.0, 1575.0, 1573.0, 1572.0, 1574.0, 1573.0, 1577.0, 1578.0, 1576.0, 1577.0, 1574.0, 1574.0, 1580.0, 1581.0, 1578.0, 1578.0, 1577.0, 1576.0, 1576.0, 1574.0, 1576.0, 1577.0, 1574.0, 1573.0, 1572.0, 1573.0, 1571.0, 1569.0, 1573.0, 1573.0, 1574.0, 1571.0, 1571.0, 1571.0, 1573.0, 1575.0, 1577.0, 1579.0, 1580.0, 1575.0, 1576.0, 1573.0, 1574.0, 1572.0, 1581.0, 1571.0, 1576.0, 1577.0, 1576.0, 1577.0, 1571.0, 1574.0, 1576.0, 1578.0, 1573.0, 1573.0, 1571.0, 1576.0, 1583.0, 1576.0, 1573.0, 1574.0, 1573.0, 1577.0, 1574.0, 1576.0, 1578.0, 1576.0, 1574.0, 1571.0, 1577.0, 1574.0, 1574.0, 1570.0, 1573.0, 1572.0, 1572.0, 1572.0, 1575.0, 1577.0, 1574.0, 1575.0, 1571.0, 1573.0, 1581.0, 1576.0, 1574.0, 1575.0, 1576.0, 1575.0, 1577.0, 1574.0, 1575.0, 1574.0, 1578.0, 1578.0, 1575.0, 1580.0, 1578.0, 1575.0, 1575.0, 1572.0, 1572.0, 1570.0, 1574.0, 1574.0, 1574.0, 1574.0, 1579.0, 1576.0, 1575.0, 1574.0, 1576.0, 1573.0, 1576.0, 1578.0, 1578.0, 1579.0, 1575.0, 1580.0, 1577.0, 1578.0, 1572.0, 1575.0, 1574.0, 1576.0, 1576.0, 1576.0, 1576.0, 1578.0, 1576.0, 1575.0, 1572.0, 1574.0, 1572.0, 1571.0, 1570.0, 1573.0, 1571.0, 1572.0, 1568.0, 1570.0, 1570.0, 1573.0, 1570.0, 1570.0, 1571.0, 1571.0, 1570.0, 1571.0, 1575.0, 1578.0, 1576.0, 1574.0, 1575.0]
    },
    "slices": {}
  }
}