{
  "AcquisitionMatrixPE": 100,
  "AcquisitionNumber": 1,
  "AcquisitionTime": "10:45:25.815000",
  "BandwidthPerPixelPhaseEncode": 18.519,
  "BaseResolution": 100,
  "BodyPartExamined": "BRAIN",
  "ConsistencyInfo": "N4_VE11C_LATEST_20160120",
  "ConversionSoftware": "dcm2niix",
  "ConversionSoftwareVersion": "v1.0.20180622 GCC4.9.2",
  "DerivedVendorReportedEchoSpacing": 0.000539986,
  "DeviceSerialNumber": "166078",
  "DwellTime": 2.1e-06,
  "EchoTime": 0.034,
  "EchoTrainLength": 100,
  "EffectiveEchoSpacing": 0.000539986,
  "FlipAngle": 90,
  "ImageOrientationPatientDICOM": [0.998971, -0.00927651, -0.0444044, -3.77677e-08, 0.978867, -0.204496],
  "ImageType": [
    "ORIGINAL",
    "PRIMARY",
    "M",
    "ND",
    "MOSAIC"
],
  "InPlanePhaseEncodingDirectionDICOM": "COL",
  "InstitutionAddress": "Street_StreetNo_Bei_Jing_District_CN_ZIP",
  "InstitutionName": "BeiJing_Normal_University",
  "InstitutionalDepartmentName": "Department",
  "MRAcquisitionType": "2D",
  "MagneticFieldStrength": 3,
  "Manufacturer": "Siemens",
  "ManufacturersModelName": "Prisma",
  "Modality": "MR",
  "MultibandAccelerationFactor": 3,
  "PartialFourier": 1,
  "PatientPosition": "HFS",
  "PercentPhaseFOV": 100,
  "PhaseEncodingDirection": "j-",
  "PhaseEncodingSteps": 100,
  "PhaseResolution": 1,
  "PixelBandwidth": 2380,
  "ProcedureStepDescription": "BNU_P2018_64CH_Zhen.ZongLei",
  "ProtocolName": "bold_100x100_s3_2x2x2_static_256",
  "PulseSequenceDetails": "%SiemensSeq%_ep2d_bold",
  "ReceiveCoilActiveElements": "HC1-7;NC1",
  "ReceiveCoilName": "HeadNeck_64",
  "ReconMatrixPE": 100,
  "RepetitionTime": 2,
  "SAR": 0.0700441,
  "ScanOptions": "FS",
  "ScanningSequence": "EP",
  "SequenceName": "_epfid2d1_100",
  "SequenceVariant": "SK",
  "SeriesDescription": "bold_100x100_s3_2x2x2_static_256",
  "SeriesNumber": 17,
  "ShimSetting": [-5462, -11509, -1272, 375, -24, -291, -99, 95],
  "SliceThickness": 2,
  "SliceTiming": [1.485, 0, 0.99, 0.0825, 1.0725, 0.165, 1.155, 0.2475, 1.2375, 0.33, 1.32, 0.4125, 1.4025, 0.5775, 1.5675, 0.66, 1.65, 0.7425, 1.7325, 0.825, 1.815, 0.9075, 1.8975, 0.495, 1.485, 0, 0.99, 0.0825, 1.0725, 0.165, 1.155, 0.2475, 1.2375, 0.33, 1.32, 0.4125, 1.4025, 0.5775, 1.5675, 0.66, 1.65, 0.7425, 1.7325, 0.825, 1.815, 0.9075, 1.8975, 0.495, 1.485, 0, 0.99, 0.0825, 1.0725, 0.165, 1.155, 0.2475, 1.2375, 0.33, 1.32, 0.4125, 1.4025, 0.5775, 1.5675, 0.66, 1.65, 0.7425, 1.7325, 0.825, 1.815, 0.9075, 1.8975, 0.495],
  "SoftwareVersions": "syngo_MR_E11",
  "SpacingBetweenSlices": 2,
  "StationName": "AWP166078",
  "TaskName": "naturalvision",
  "TotalReadoutTime": 0.0534586,
  "TxRefAmp": 232.351,
  "dcmmeta_affine": [
    [-1.9979411363601685, -7.553536818249995e-08, -0.09072596579790115, 103.11783599853516],
    [0.018553027883172035, 1.9577348232269287, -0.4085710942745209, -76.18773651123047],
    [-0.08880870044231415, 0.40899211168289185, 1.9557194709777832, -101.91925811767578],
    [0.0, 0.0, 0.0, 1.0]
],
  "dcmmeta_reorient_transform": [
    [0.0, -1.0, 0.0, 99.0],
    [1.0, 0.0, 0.0, 0.0],
    [0.0, 0.0, 1.0, 0.0],
    [0.0, 0.0, 0.0, 1.0]
],
  "dcmmeta_shape": [100, 100, 72, 256],
  "dcmmeta_slice_dim": 2,
  "dcmmeta_version": 0.6,
  "global": {
    "const": {
      "AcquisitionMatrix": [100, 0, 0, 100],
      "AngioFlag": "N",
      "BitsAllocated": 16,
      "BitsStored": 12,
      "BodyPartExamined": "BRAIN",
      "Columns": 900,
      "EchoNumbers": 1,
      "EchoTime": 34.0,
      "EchoTrainLength": 100,
      "FlipAngle": 90.0,
      "HighBit": 11,
      "ImageOrientationPatient": [0.99897057010123, -0.0092765134931, -0.0444043507895, -3.7767684e-08, 0.97886738944877, -0.2044960485529],
      "ImagePositionPatient": [-902.29425136658, -893.30071078439, 137.69127524069],
      "ImageType": [
        "ORIGINAL",
        "PRIMARY",
        "M",
        "ND",
        "MOSAIC"
],
      "ImagedNucleus": "1H",
      "ImagingFrequency": 123.257741,
      "InPlanePhaseEncodingDirection": "COL",
      "MRAcquisitionType": "2D",
      "MagneticFieldStrength": 3.0,
      "Manufacturer": "SIEMENS",
      "ManufacturerModelName": "Prisma",
      "Modality": "MR",
      "NumberOfAverages": 1.0,
      "NumberOfPhaseEncodingSteps": 100,
      "PercentPhaseFieldOfView": 100.0,
      "PercentSampling": 100.0,
      "PerformedProcedureStepStartTime": "085013.174000",
      "PhotometricInterpretation": "MONOCHROME2",
      "PixelBandwidth": 2380.0,
      "PixelRepresentation": 0,
      "PixelSpacing": [2.0, 2.0],
      "ProtocolName": "bold_100x100_s3_2x2x2_static_256",
      "RepetitionTime": 2000.0,
      "Rows": 900,
      "SAR": 0.07004414373992,
      "SamplesPerPixel": 1,
      "ScanOptions": "FS",
      "ScanningSequence": "EP",
      "SequenceName": "*epfid2d1_100",
      "SequenceVariant": "SK",
      "SeriesDescription": "bold_100x100_s3_2x2x2_static_256",
      "SeriesNumber": 17,
      "SeriesTime": "104528.459000",
      "SliceLocation": -88.776420660026,
      "SliceThickness": 2.0,
      "SmallestImagePixelValue": 0,
      "SoftwareVersions": "syngo MR E11",
      "SpacingBetweenSlices": 2.0000000519717,
      "SpecificCharacterSet": "ISO_IR 100",
      "StudyID": "1",
      "StudyTime": "085013.106000",
      "TransmitCoilName": "Body",
      "VariableFlipAngleFlag": "N",
      "WindowCenterWidthExplanation": "Algo1",
      "dBdt": 0.0},
    "slices": {}
  },
  "time": {
    "samples": {
      "AcquisitionNumber": [1, 2, 3, 4, 5, 6, 7, 8, 9, 10, 11, 12, 13, 14, 15, 16, 17, 18, 19, 20, 21, 22, 23, 24, 25, 26, 27, 28, 29, 30, 31, 32, 33, 34, 35, 36, 37, 38, 39, 40, 41, 42, 43, 44, 45, 46, 47, 48, 49, 50, 51, 52, 53, 54, 55, 56, 57, 58, 59, 60, 61, 62, 63, 64, 65, 66, 67, 68, 69, 70, 71, 72, 73, 74, 75, 76, 77, 78, 79, 80, 81, 82, 83, 84, 85, 86, 87, 88, 89, 90, 91, 92, 93, 94, 95, 96, 97, 98, 99, 100, 101, 102, 103, 104, 105, 106, 107, 108, 109, 110, 111, 112, 113, 114, 115, 116, 117, 118, 119, 120, 121, 122, 123, 124, 125, 126, 127, 128, 129, 130, 131, 132, 133, 134, 135, 136, 137, 138, 139, 140, 141, 142, 143, 144, 145, 146, 147, 148, 149, 150, 151, 152, 153, 154, 155, 156, 157, 158, 159, 160, 161, 162, 163, 164, 165, 166, 167, 168, 169, 170, 171, 172, 173, 174, 175, 176, 177, 178, 179, 180, 181, 182, 183, 184, 185, 186, 187, 188, 189, 190, 191, 192, 193, 194, 195, 196, 197, 198, 199, 200, 201, 202, 203, 204, 205, 206, 207, 208, 209, 210, 211, 212, 213, 214, 215, 216, 217, 218, 219, 220, 221, 222, 223, 224, 225, 226, 227, 228, 229, 230, 231, 232, 233, 234, 235, 236, 237, 238, 239, 240, 241, 242, 243, 244, 245, 246, 247, 248, 249, 250, 251, 252, 253, 254, 255, 256],
      "AcquisitionTime": ["104525.815000", "104527.815000", "104529.815000", "104531.815000", "104533.815000", "104535.815000", "104537.815000", "104539.815000", "104541.815000", "104543.815000", "104545.815000", "104547.815000", "104549.815000", "104551.815000", "104553.815000", "104555.815000", "104557.815000", "104559.815000", "104601.815000", "104603.815000", "104605.815000", "104607.815000", "104609.815000", "104611.815000", "104613.815000", "104615.815000", "104617.815000", "104619.815000", "104621.815000", "104623.815000", "104625.815000", "104627.815000", "104629.815000", "104631.815000", "104633.815000", "104635.815000", "104637.815000", "104639.815000", "104641.815000", "104643.815000", "104645.815000", "104647.815000", "104649.815000", "104651.815000", "104653.815000", "104655.815000", "104657.815000", "104659.815000", "104701.815000", "104703.815000", "104705.815000", "104707.815000", "104709.815000", "104711.815000", "104713.815000", "104715.815000", "104717.815000", "104719.815000", "104721.815000", "104723.815000", "104725.815000", "104727.815000", "104729.815000", "104731.815000", "104733.815000", "104735.815000", "104737.815000", "104739.815000", "104741.815000", "104743.815000", "104745.815000", "104747.815000", "104749.815000", "104751.815000", "104753.815000", "104755.815000", "104757.815000", "104759.815000", "104801.815000", "104803.815000", "104805.815000", "104807.815000", "104809.815000", "104811.815000", "104813.815000", "104815.815000", "104817.815000", "104819.815000", "104821.815000", "104823.815000", "104825.815000", "104827.815000", "104829.815000", "104831.815000", "104833.815000", "104835.815000", "104837.815000", "104839.815000", "104841.815000", "104843.815000", "104845.815000", "104847.815000", "104849.815000", "104851.815000", "104853.815000", "104855.815000", "104857.815000", "104859.815000", "104901.815000", "104903.815000", "104905.815000", "104907.815000", "104909.815000", "104911.815000", "104913.815000", "104915.815000", "104917.815000", "104919.815000", "104921.815000", "104923.815000", "104925.815000", "104927.815000", "104929.815000", "104931.815000", "104933.815000", "104935.815000", "104937.815000", "104939.815000", "104941.815000", "104943.815000", "104945.815000", "104947.815000", "104949.815000", "104951.815000", "104953.815000", "104955.815000", "104957.815000", "104959.815000", "105001.815000", "105003.815000", "105005.815000", "105007.815000", "105009.815000", "105011.815000", "105013.815000", "105015.815000", "105017.815000", "105019.815000", "105021.815000", "105023.815000", "105025.815000", "105027.815000", "105029.815000", "105031.815000", "105033.815000", "105035.815000", "105037.815000", "105039.815000", "105041.815000", "105043.815000", "105045.815000", "105047.815000", "105049.815000", "105051.815000", "105053.815000", "105055.815000", "105057.815000", "105059.815000", "105101.815000", "105103.815000", "105105.815000", "105107.815000", "105109.815000", "105111.815000", "105113.815000", "105115.815000", "105117.815000", "105119.815000", "105121.815000", "105123.815000", "105125.815000", "105127.815000", "105129.815000", "105131.815000", "105133.815000", "105135.815000", "105137.815000", "105139.815000", "105141.815000", "105143.815000", "105145.815000", "105147.815000", "105149.815000", "105151.815000", "105153.815000", "105155.815000", "105157.815000", "105159.815000", "105201.815000", "105203.815000", "105205.815000", "105207.815000", "105209.815000", "105211.815000", "105213.815000", "105215.815000", "105217.815000", "105219.815000", "105221.815000", "105223.815000", "105225.815000", "105227.815000", "105229.815000", "105231.815000", "105233.815000", "105235.815000", "105237.815000", "105239.815000", "105241.815000", "105243.815000", "105245.815000", "105247.815000", "105249.815000", "105251.815000", "105253.815000", "105255.815000", "105257.815000", "105259.815000", "105301.815000", "105303.815000", "105305.815000", "105307.815000", "105309.815000", "105311.815000", "105313.815000", "105315.815000", "105317.815000", "105319.815000", "105321.815000", "105323.815000", "105325.815000", "105327.815000", "105329.815000", "105331.815000", "105333.815000", "105335.815000", "105337.815000", "105339.815000", "105341.815000", "105343.815000", "105345.815000", "105347.815000", "105349.815000", "105351.815000", "105353.815000", "105355.815000"],
      "ContentTime": ["104528.463000", "104529.959000", "104531.958000", "104533.958000", "104535.959000", "104537.960000", "104539.959000", "104541.958000", "104543.958000", "104545.958000", "104547.958000", "104549.958000", "104551.958000", "104553.959000", "104555.959000", "104557.959000", "104559.959000", "104601.959000", "104603.959000", "104605.959000", "104607.958000", "104609.960000", "104611.960000", "104613.960000", "104615.960000", "104617.959000", "104619.958000", "104621.959000", "104623.959000", "104625.959000", "104627.959000", "104629.960000", "104631.960000", "104633.959000", "104635.959000", "104637.959000", "104639.958000", "104641.958000", "104643.959000", "104645.959000", "104647.960000", "104649.960000", "104651.958000", "104653.959000", "104655.959000", "104657.959000", "104659.958000", "104701.960000", "104703.959000", "104705.959000", "104707.960000", "104709.959000", "104711.959000", "104713.958000", "104715.958000", "104717.959000", "104719.959000", "104721.960000", "104723.959000", "104725.960000", "104727.958000", "104729.958000", "104731.958000", "104733.959000", "104735.958000", "104737.959000", "104739.959000", "104741.960000", "104743.959000", "104745.959000", "104747.958000", "104749.959000", "104751.958000", "104753.978000", "104755.960000", "104757.960000", "104759.960000", "104801.958000", "104803.958000", "104805.959000", "104807.959000", "104809.958000", "104811.960000", "104813.959000", "104815.960000", "104817.959000", "104819.958000", "104821.959000", "104823.959000", "104825.958000", "104827.959000", "104829.959000", "104831.960000", "104833.959000", "104835.959000", "104837.959000", "104839.959000", "104841.958000", "104843.958000", "104845.959000", "104847.960000", "104849.960000", "104851.960000", "104853.959000", "104855.958000", "104857.958000", "104859.959000", "104901.959000", "104903.958000", "104905.959000", "104907.960000", "104909.960000", "104911.958000", "104913.959000", "104915.959000", "104917.958000", "104919.958000", "104921.959000", "104923.959000", "104925.960000", "104927.960000", "104929.959000", "104931.958000", "104933.959000", "104935.958000", "104937.959000", "104939.959000", "104941.960000", "104943.959000", "104945.960000", "104947.959000", "104949.958000", "104951.959000", "104953.958000", "104955.959000", "104957.960000", "104959.959000", "105001.960000", "105003.959000", "105005.958000", "105007.959000", "105009.958000", "105011.958000", "105013.958000", "105015.960000", "105017.959000", "105019.960000", "105021.958000", "105023.959000", "105025.959000", "105027.959000", "105029.958000", "105031.959000", "105033.959000", "105035.960000", "105037.959000", "105039.958000", "105041.959000", "105043.959000", "105045.958000", "105047.958000", "105049.960000", "105051.959000", "105053.960000", "105055.959000", "105057.959000", "105059.959000", "105101.958000", "105103.958000", "105105.959000", "105107.960000", "105109.959000", "105111.959000", "105113.960000", "105115.958000", "105117.958000", "105119.958000", "105121.959000", "105123.959000", "105125.960000", "105127.959000", "105129.959000", "105131.958000", "105133.959000", "105135.958000", "105137.959000", "105139.958000", "105141.960000", "105143.960000", "105145.960000", "105147.959000", "105149.959000", "105151.959000", "105153.958000", "105155.959000", "105157.959000", "105159.959000", "105201.960000", "105203.960000", "105205.960000", "105207.958000", "105209.959000", "105211.959000", "105213.959000", "105215.958000", "105217.960000", "105219.959000", "105221.960000", "105223.960000", "105225.959000", "105227.958000", "105229.959000", "105231.959000", "105233.959000", "105235.959000", "105237.959000", "105239.960000", "105241.959000", "105243.958000", "105245.959000", "105247.971000", "105249.959000", "105251.959000", "105253.959000", "105255.959000", "105257.959000", "105259.958000", "105301.958000", "105303.958000", "105305.958000", "105307.958000", "105309.960000", "105311.960000", "105313.960000", "105315.960000", "105317.959000", "105319.958000", "105321.958000", "105323.958000", "105325.959000", "105327.959000", "105329.959000", "105331.960000", "105333.959000", "105335.958000", "105337.959000", "105339.958000", "105341.959000", "105343.959000", "105345.960000", "105347.960000", "105349.960000", "105351.959000", "105353.958000", "105355.958000", "105357.740000"],
      "InstanceCreationTime": ["104528.463000", "104529.959000", "104531.958000", "104533.958000", "104535.959000", "104537.960000", "104539.959000", "104541.958000", "104543.958000", "104545.958000", "104547.958000", "104549.958000", "104551.958000", "104553.959000", "104555.959000", "104557.959000", "104559.959000", "104601.959000", "104603.959000", "104605.959000", "104607.958000", "104609.960000", "104611.960000", "104613.960000", "104615.960000", "104617.959000", "104619.958000", "104621.959000", "104623.959000", "104625.959000", "104627.959000", "104629.960000", "104631.960000", "104633.959000", "104635.959000", "104637.959000", "104639.958000", "104641.958000", "104643.959000", "104645.959000", "104647.960000", "104649.960000", "104651.958000", "104653.959000", "104655.959000", "104657.959000", "104659.958000", "104701.960000", "104703.959000", "104705.959000", "104707.960000", "104709.959000", "104711.959000", "104713.958000", "104715.958000", "104717.959000", "104719.959000", "104721.960000", "104723.959000", "104725.960000", "104727.958000", "104729.958000", "104731.958000", "104733.959000", "104735.958000", "104737.959000", "104739.959000", "104741.960000", "104743.959000", "104745.959000", "104747.958000", "104749.959000", "104751.958000", "104753.978000", "104755.960000", "104757.960000", "104759.960000", "104801.958000", "104803.958000", "104805.959000", "104807.959000", "104809.958000", "104811.960000", "104813.959000", "104815.960000", "104817.959000", "104819.958000", "104821.959000", "104823.959000", "104825.958000", "104827.959000", "104829.959000", "104831.960000", "104833.959000", "104835.959000", "104837.959000", "104839.959000", "104841.958000", "104843.958000", "104845.959000", "104847.960000", "104849.960000", "104851.960000", "104853.959000", "104855.958000", "104857.958000", "104859.959000", "104901.959000", "104903.958000", "104905.959000", "104907.960000", "104909.960000", "104911.958000", "104913.959000", "104915.959000", "104917.958000", "104919.958000", "104921.959000", "104923.959000", "104925.960000", "104927.960000", "104929.959000", "104931.958000", "104933.959000", "104935.958000", "104937.959000", "104939.959000", "104941.960000", "104943.959000", "104945.960000", "104947.959000", "104949.958000", "104951.959000", "104953.958000", "104955.959000", "104957.960000", "104959.959000", "105001.960000", "105003.959000", "105005.958000", "105007.959000", "105009.958000", "105011.958000", "105013.958000", "105015.960000", "105017.959000", "105019.960000", "105021.958000", "105023.959000", "105025.959000", "105027.959000", "105029.958000", "105031.959000", "105033.959000", "105035.960000", "105037.959000", "105039.958000", "105041.959000", "105043.959000", "105045.958000", "105047.958000", "105049.960000", "105051.959000", "105053.960000", "105055.959000", "105057.959000", "105059.959000", "105101.958000", "105103.958000", "105105.959000", "105107.960000", "105109.959000", "105111.959000", "105113.960000", "105115.958000", "105117.958000", "105119.958000", "105121.959000", "105123.959000", "105125.960000", "105127.959000", "105129.959000", "105131.958000", "105133.959000", "105135.958000", "105137.959000", "105139.958000", "105141.960000", "105143.960000", "105145.960000", "105147.959000", "105149.959000", "105151.959000", "105153.958000", "105155.959000", "105157.959000", "105159.959000", "105201.960000", "105203.960000", "105205.960000", "105207.958000", "105209.959000", "105211.959000", "105213.959000", "105215.958000", "105217.960000", "105219.959000", "105221.960000", "105223.960000", "105225.959000", "105227.958000", "105229.959000", "105231.959000", "105233.959000", "105235.959000", "105237.959000", "105239.960000", "105241.959000", "105243.958000", "105245.959000", "105247.971000", "105249.959000", "105251.959000", "105253.959000", "105255.959000", "105257.959000", "105259.958000", "105301.958000", "105303.958000", "105305.958000", "105307.958000", "105309.960000", "105311.960000", "105313.960000", "105315.960000", "105317.959000", "105319.958000", "105321.958000", "105323.958000", "105325.959000", "105327.959000", "105329.959000", "105331.960000", "105333.959000", "105335.958000", "105337.959000", "105339.958000", "105341.959000", "105343.959000", "105345.960000", "105347.960000", "105349.960000", "105351.959000", "105353.958000", "105355.958000", "105357.740000"],
      "InstanceNumber": [1, 2, 3, 4, 5, 6, 7, 8, 9, 10, 11, 12, 13, 14, 15, 16, 17, 18, 19, 20, 21, 22, 23, 24, 25, 26, 27, 28, 29, 30, 31, 32, 33, 34, 35, 36, 37, 38, 39, 40, 41, 42, 43, 44, 45, 46, 47, 48, 49, 50, 51, 52, 53, 54, 55, 56, 57, 58, 59, 60, 61, 62, 63, 64, 65, 66, 67, 68, 69, 70, 71, 72, 73, 74, 75, 76, 77, 78, 79, 80, 81, 82, 83, 84, 85, 86, 87, 88, 89, 90, 91, 92, 93, 94, 95, 96, 97, 98, 99, 100, 101, 102, 103, 104, 105, 106, 107, 108, 109, 110, 111, 112, 113, 114, 115, 116, 117, 118, 119, 120, 121, 122, 123, 124, 125, 126, 127, 128, 129, 130, 131, 132, 133, 134, 135, 136, 137, 138, 139, 140, 141, 142, 143, 144, 145, 146, 147, 148, 149, 150, 151, 152, 153, 154, 155, 156, 157, 158, 159, 160, 161, 162, 163, 164, 165, 166, 167, 168, 169, 170, 171, 172, 173, 174, 175, 176, 177, 178, 179, 180, 181, 182, 183, 184, 185, 186, 187, 188, 189, 190, 191, 192, 193, 194, 195, 196, 197, 198, 199, 200, 201, 202, 203, 204, 205, 206, 207, 208, 209, 210, 211, 212, 213, 214, 215, 216, 217, 218, 219, 220, 221, 222, 223, 224, 225, 226, 227, 228, 229, 230, 231, 232, 233, 234, 235, 236, 237, 238, 239, 240, 241, 242, 243, 244, 245, 246, 247, 248, 249, 250, 251, 252, 253, 254, 255, 256],
      "LargestImagePixelValue": [2752, 2689, 2670, 2642, 2666, 2662, 2654, 2663, 2667, 3011, 2659, 2622, 2660, 2652, 2682, 2848, 2760, 2643, 2678, 2670, 2651, 2662, 2641, 2627, 2639, 3140, 2644, 2651, 2639, 2685, 2646, 2680, 2656, 2663, 2678, 2929, 2649, 2667, 2629, 2689, 2705, 2660, 2658, 2654, 2678, 2862, 2657, 2666, 2733, 2691, 2679, 2690, 2691, 2663, 2751, 2695, 2714, 2763, 2729, 2686, 2719, 2724, 2754, 2679, 2774, 2660, 2709, 2688, 2713, 2700, 2739, 2720, 2781, 2752, 2750, 2929, 2753, 2682, 2727, 2681, 2759, 2741, 2741, 2672, 2691, 3372, 2688, 2706, 2692, 2721, 2702, 2728, 2723, 2806, 2749, 2746, 2721, 2803, 2700, 2766, 2724, 2777, 2730, 2810, 2796, 2813, 2729, 2768, 2766, 2774, 2757, 2960, 2757, 2801, 2731, 2805, 2747, 2720, 2778, 3215, 2748, 2751, 2770, 2739, 2800, 2763, 2804, 2758, 2785, 2768, 2783, 2805, 2796, 2798, 2798, 2801, 2822, 2734, 2762, 2828, 2743, 2743, 2815, 2743, 2822, 2758, 2765, 2754, 2777, 2734, 2721, 2875, 2735, 2745, 2765, 2757, 2762, 2807, 2784, 2749, 2735, 2706, 2732, 2718, 2715, 2737, 2745, 2796, 2777, 2827, 2872, 2913, 2905, 2909, 2891, 2850, 2881, 2854, 2916, 2892, 2926, 2903, 2918, 2945, 2978, 2936, 2918, 2976, 2939, 2946, 2895, 2956, 2954, 2951, 2939, 2951, 2950, 2970, 2978, 2987, 2957, 2962, 2955, 2961, 2973, 2917, 2938, 2905, 2925, 2925, 2916, 2946, 2945, 2931, 2937, 2972, 2943, 2964, 2939, 2958, 2913, 2943, 2912, 2915, 2925, 2954, 2922, 3018, 2945, 3197, 2931, 2909, 2917, 2954, 2930, 2978, 2978, 2972, 2955, 2993, 2959, 2990, 2968, 2939, 2957, 2960, 2952, 2977, 2928, 2964, 2936, 2969, 2962, 2965, 2980, 2955],
      "WindowCenter": [751.0, 751.0, 753.0, 755.0, 756.0, 757.0, 757.0, 757.0, 755.0, 759.0, 755.0, 755.0, 755.0, 756.0, 754.0, 757.0, 755.0, 753.0, 755.0, 754.0, 754.0, 754.0, 754.0, 754.0, 755.0, 760.0, 755.0, 755.0, 755.0, 755.0, 754.0, 754.0, 753.0, 754.0, 754.0, 757.0, 754.0, 755.0, 754.0, 755.0, 755.0, 755.0, 755.0, 754.0, 754.0, 756.0, 755.0, 756.0, 756.0, 756.0, 755.0, 756.0, 755.0, 755.0, 757.0, 755.0, 754.0, 754.0, 755.0, 754.0, 754.0, 755.0, 754.0, 754.0, 756.0, 755.0, 755.0, 754.0, 754.0, 754.0, 754.0, 754.0, 756.0, 756.0, 757.0, 758.0, 755.0, 754.0, 755.0, 756.0, 757.0, 755.0, 754.0, 753.0, 753.0, 760.0, 753.0, 754.0, 753.0, 754.0, 753.0, 755.0, 755.0, 756.0, 755.0, 755.0, 755.0, 756.0, 755.0, 755.0, 754.0, 754.0, 754.0, 755.0, 754.0, 754.0, 753.0, 755.0, 755.0, 756.0, 755.0, 757.0, 755.0, 756.0, 755.0, 756.0, 754.0, 754.0, 755.0, 760.0, 755.0, 754.0, 755.0, 754.0, 755.0, 755.0, 756.0, 756.0, 756.0, 754.0, 755.0, 756.0, 756.0, 756.0, 757.0, 757.0, 756.0, 754.0, 754.0, 755.0, 754.0, 755.0, 757.0, 756.0, 757.0, 755.0, 754.0, 753.0, 753.0, 754.0, 754.0, 757.0, 754.0, 753.0, 753.0, 753.0, 752.0, 754.0, 754.0, 756.0, 756.0, 756.0, 756.0, 755.0, 754.0, 753.0, 755.0, 756.0, 756.0, 754.0, 755.0, 755.0, 755.0, 754.0, 756.0, 757.0, 756.0, 756.0, 757.0, 758.0, 758.0, 758.0, 757.0, 758.0, 758.0, 758.0, 757.0, 756.0, 757.0, 758.0, 758.0, 758.0, 757.0, 758.0, 757.0, 757.0, 757.0, 758.0, 757.0, 757.0, 756.0, 757.0, 758.0, 759.0, 759.0, 758.0, 758.0, 757.0, 757.0, 757.0, 757.0, 758.0, 759.0, 759.0, 759.0, 759.0, 759.0, 759.0, 759.0, 759.0, 758.0, 757.0, 756.0, 757.0, 757.0, 758.0, 758.0, 759.0, 757.0, 761.0, 758.0, 758.0, 758.0, 759.0, 758.0, 759.0, 759.0, 758.0, 758.0, 758.0, 758.0, 759.0, 758.0, 757.0, 757.0, 759.0, 761.0, 761.0, 759.0, 757.0, 757.0, 757.0, 757.0, 757.0, 757.0, 755.0],
      "WindowWidth": [1592.0, 1592.0, 1597.0, 1601.0, 1603.0, 1605.0, 1605.0, 1605.0, 1601.0, 1610.0, 1600.0, 1602.0, 1600.0, 1602.0, 1599.0, 1606.0, 1601.0, 1598.0, 1600.0, 1598.0, 1598.0, 1598.0, 1599.0, 1600.0, 1600.0, 1613.0, 1602.0, 1602.0, 1601.0, 1600.0, 1598.0, 1598.0, 1597.0, 1598.0, 1599.0, 1606.0, 1599.0, 1600.0, 1598.0, 1601.0, 1600.0, 1601.0, 1601.0, 1600.0, 1598.0, 1605.0, 1601.0, 1604.0, 1604.0, 1604.0, 1602.0, 1603.0, 1601.0, 1602.0, 1606.0, 1601.0, 1598.0, 1598.0, 1600.0, 1599.0, 1599.0, 1600.0, 1600.0, 1598.0, 1603.0, 1602.0, 1602.0, 1600.0, 1600.0, 1599.0, 1600.0, 1600.0, 1602.0, 1605.0, 1605.0, 1609.0, 1601.0, 1599.0, 1601.0, 1604.0, 1605.0, 1601.0, 1599.0, 1597.0, 1597.0, 1613.0, 1597.0, 1598.0, 1596.0, 1598.0, 1598.0, 1601.0, 1601.0, 1602.0, 1601.0, 1601.0, 1601.0, 1603.0, 1601.0, 1602.0, 1598.0, 1600.0, 1600.0, 1601.0, 1599.0, 1599.0, 1598.0, 1601.0, 1601.0, 1604.0, 1601.0, 1607.0, 1601.0, 1604.0, 1602.0, 1604.0, 1599.0, 1599.0, 1600.0, 1612.0, 1600.0, 1600.0, 1600.0, 1599.0, 1601.0, 1601.0, 1603.0, 1603.0, 1602.0, 1599.0, 1601.0, 1603.0, 1603.0, 1604.0, 1605.0, 1605.0, 1603.0, 1600.0, 1598.0, 1600.0, 1598.0, 1600.0, 1606.0, 1604.0, 1605.0, 1601.0, 1598.0, 1597.0, 1597.0, 1599.0, 1600.0, 1605.0, 1599.0, 1596.0, 1596.0, 1596.0, 1595.0, 1598.0, 1599.0, 1603.0, 1602.0, 1602.0, 1602.0, 1601.0, 1598.0, 1597.0, 1601.0, 1603.0, 1602.0, 1598.0, 1601.0, 1601.0, 1600.0, 1599.0, 1603.0, 1605.0, 1604.0, 1604.0, 1605.0, 1608.0, 1607.0, 1609.0, 1607.0, 1607.0, 1608.0, 1607.0, 1604.0, 1603.0, 1605.0, 1607.0, 1607.0, 1609.0, 1606.0, 1607.0, 1606.0, 1605.0, 1605.0, 1607.0, 1606.0, 1606.0, 1604.0, 1605.0, 1608.0, 1609.0, 1611.0, 1609.0, 1607.0, 1606.0, 1606.0, 1607.0, 1607.0, 1609.0, 1609.0, 1610.0, 1611.0, 1611.0, 1610.0, 1610.0, 1610.0, 1610.0, 1608.0, 1606.0, 1604.0, 1605.0, 1606.0, 1607.0, 1608.0, 1612.0, 1606.0, 1614.0, 1608.0, 1608.0, 1608.0, 1610.0, 1608.0, 1610.0, 1610.0, 1607.0, 1608.0, 1609.0, 1608.0, 1611.0, 1608.0, 1607.0, 1606.0, 1612.0, 1615.0, 1616.0, 1609.0, 1605.0, 1605.0, 1605.0, 1606.0, 1604.0, 1604.0, 1601.0]
    },
    "slices": {}
  }
}