{
 "AcquisitionMatrixPE": 100,
 "AcquisitionNumber": 1,
 "AcquisitionTime": "09:30:27.310000",
 "BandwidthPerPixelPhaseEncode": 18.519,
 "BaseResolution": 100,
 "BodyPartExamined": "BRAIN",
 "ConsistencyInfo": "N4_VE11C_LATEST_20160120",
 "ConversionSoftware": "dcm2niix",
 "ConversionSoftwareVersion": "v1.0.20180622 GCC4.9.2",
 "DerivedVendorReportedEchoSpacing": 0.000539986,
 "DeviceSerialNumber": "166078",
 "DwellTime": 2.1e-06,
 "EchoTime": 0.034,
 "EchoTrainLength": 100,
 "EffectiveEchoSpacing": 0.000539986,
 "FlipAngle": 90,
 "ImageOrientationPatientDICOM": [
  1,
  0,
  0,
  0,
  0.977416,
  -0.211325
 ],
 "ImageType": [
  "ORIGINAL",
  "PRIMARY",
  "M",
  "ND",
  "MOSAIC"
 ],
 "InPlanePhaseEncodingDirectionDICOM": "COL",
 "InstitutionAddress": "Street_StreetNo_Bei_Jing_District_CN_ZIP",
 "InstitutionName": "BeiJing_Normal_University",
 "InstitutionalDepartmentName": "Department",
 "MRAcquisitionType": "2D",
 "MagneticFieldStrength": 3,
 "Manufacturer": "Siemens",
 "ManufacturersModelName": "Prisma",
 "Modality": "MR",
 "MultibandAccelerationFactor": 3,
 "PartialFourier": 1,
 "PatientPosition": "HFS",
 "PercentPhaseFOV": 100,
 "PhaseEncodingDirection": "j-",
 "PhaseEncodingSteps": 100,
 "PhaseResolution": 1,
 "PixelBandwidth": 2380,
 "ProcedureStepDescription": "BNU_P2018_64CH_Zhen.ZongLei",
 "ProtocolName": "bold_100x100_s3_2x2x2_static_256",
 "PulseSequenceDetails": "%SiemensSeq%_ep2d_bold",
 "ReceiveCoilActiveElements": "HC1-7;NC1",
 "ReceiveCoilName": "HeadNeck_64",
 "ReconMatrixPE": 100,
 "RepetitionTime": 2,
 "SAR": 0.0633688,
 "ScanOptions": "FS",
 "ScanningSequence": "EP",
 "SequenceName": "_epfid2d1_100",
 "SequenceVariant": "SK",
 "SeriesDescription": "bold_100x100_s3_2x2x2_static_256",
 "SeriesNumber": 6,
 "ShimSetting": [
  -5458,
  -11512,
  -1227,
  385,
  18,
  -280,
  -175,
  73
 ],
 "SliceThickness": 2,
 "SliceTiming": [
  1.485,
  0,
  0.99,
  0.0825,
  1.0725,
  0.165,
  1.155,
  0.2475,
  1.2375,
  0.33,
  1.32,
  0.4125,
  1.4025,
  0.5775,
  1.5675,
  0.66,
  1.65,
  0.7425,
  1.7325,
  0.825,
  1.815,
  0.9075,
  1.8975,
  0.495,
  1.485,
  0,
  0.99,
  0.0825,
  1.0725,
  0.165,
  1.155,
  0.2475,
  1.2375,
  0.33,
  1.32,
  0.4125,
  1.4025,
  0.5775,
  1.5675,
  0.66,
  1.65,
  0.7425,
  1.7325,
  0.825,
  1.815,
  0.9075,
  1.8975,
  0.495,
  1.485,
  0,
  0.99,
  0.0825,
  1.0725,
  0.165,
  1.155,
  0.2475,
  1.2375,
  0.33,
  1.32,
  0.4125,
  1.4025,
  0.5775,
  1.5675,
  0.66,
  1.65,
  0.7425,
  1.7325,
  0.825,
  1.815,
  0.9075,
  1.8975,
  0.495
 ],
 "SoftwareVersions": "syngo_MR_E11",
 "SpacingBetweenSlices": 2,
 "StationName": "AWP166078",
 "TaskName": "imagenet",
 "TotalReadoutTime": 0.0534586,
 "TxRefAmp": 222.274,
 "dcmmeta_affine": [
  [
   -2.0,
   0.0,
   0.0,
   100.0
  ],
  [
   0.0,
   1.954831838607788,
   -0.4226495623588562,
   -76.24516296386719
  ],
  [
   0.0,
   0.4226495623588562,
   1.954831838607788,
   -81.97076416015625
  ],
  [
   0.0,
   0.0,
   0.0,
   1.0
  ]
 ],
 "dcmmeta_reorient_transform": [
  [
   0.0,
   -1.0,
   0.0,
   99.0
  ],
  [
   1.0,
   0.0,
   0.0,
   0.0
  ],
  [
   0.0,
   0.0,
   1.0,
   0.0
  ],
  [
   0.0,
   0.0,
   0.0,
   1.0
  ]
 ],
 "dcmmeta_shape": [
  100,
  100,
  72,
  256
 ],
 "dcmmeta_slice_dim": 2,
 "dcmmeta_version": 0.6,
 "global": {
  "const": {
   "AcquisitionMatrix": [
    100,
    0,
    0,
    100
   ],
   "AngioFlag": "N",
   "BitsAllocated": 16,
   "BitsStored": 12,
   "BodyPartExamined": "BRAIN",
   "Columns": 900,
   "EchoNumbers": 1,
   "EchoTime": 34.0,
   "EchoTrainLength": 100,
   "FlipAngle": 90.0,
   "HighBit": 11,
   "ImageOrientationPatient": [
    1.0,
    0.0,
    0.0,
    0.0,
    0.97741589648343,
    -0.2113247862923
   ],
   "ImagePositionPatient": [
    -900.0,
    -899.21589847937,
    128.93137092601
   ],
   "ImageType": [
    "ORIGINAL",
    "PRIMARY",
    "M",
    "ND",
    "MOSAIC"
   ],
   "ImagedNucleus": "1H",
   "ImagingFrequency": 123.257706,
   "InPlanePhaseEncodingDirection": "COL",
   "MRAcquisitionType": "2D",
   "MagneticFieldStrength": 3.0,
   "Manufacturer": "SIEMENS",
   "ManufacturerModelName": "Prisma",
   "Modality": "MR",
   "NumberOfAverages": 1.0,
   "NumberOfPhaseEncodingSteps": 100,
   "PercentPhaseFieldOfView": 100.0,
   "PercentSampling": 100.0,
   "PerformedProcedureStepStartTime": "085013.174000",
   "PhotometricInterpretation": "MONOCHROME2",
   "PixelBandwidth": 2380.0,
   "PixelRepresentation": 0,
   "PixelSpacing": [
    2.0,
    2.0
   ],
   "ProtocolName": "bold_100x100_s3_2x2x2_static_256",
   "RepetitionTime": 2000.0,
   "Rows": 900,
   "SAR": 0.06336875095733,
   "SamplesPerPixel": 1,
   "ScanOptions": "FS",
   "ScanningSequence": "EP",
   "SequenceName": "*epfid2d1_100",
   "SequenceVariant": "SK",
   "SeriesDescription": "bold_100x100_s3_2x2x2_static_256",
   "SeriesNumber": 6,
   "SeriesTime": "093029.982000",
   "SliceLocation": -64.007036078309,
   "SliceThickness": 2.0,
   "SmallestImagePixelValue": 0,
   "SoftwareVersions": "syngo MR E11",
   "SpacingBetweenSlices": 1.9999999942808,
   "SpecificCharacterSet": "ISO_IR 100",
   "StudyID": "1",
   "StudyTime": "085013.106000",
   "TransmitCoilName": "Body",
   "VariableFlipAngleFlag": "N",
   "WindowCenterWidthExplanation": "Algo1",
   "dBdt": 0.0
  },
  "slices": {}
 },
 "time": {
  "samples": {
   "AcquisitionNumber": [
    1,
    2,
    3,
    4,
    5,
    6,
    7,
    8,
    9,
    10,
    11,
    12,
    13,
    14,
    15,
    16,
    17,
    18,
    19,
    20,
    21,
    22,
    23,
    24,
    25,
    26,
    27,
    28,
    29,
    30,
    31,
    32,
    33,
    34,
    35,
    36,
    37,
    38,
    39,
    40,
    41,
    42,
    43,
    44,
    45,
    46,
    47,
    48,
    49,
    50,
    51,
    52,
    53,
    54,
    55,
    56,
    57,
    58,
    59,
    60,
    61,
    62,
    63,
    64,
    65,
    66,
    67,
    68,
    69,
    70,
    71,
    72,
    73,
    74,
    75,
    76,
    77,
    78,
    79,
    80,
    81,
    82,
    83,
    84,
    85,
    86,
    87,
    88,
    89,
    90,
    91,
    92,
    93,
    94,
    95,
    96,
    97,
    98,
    99,
    100,
    101,
    102,
    103,
    104,
    105,
    106,
    107,
    108,
    109,
    110,
    111,
    112,
    113,
    114,
    115,
    116,
    117,
    118,
    119,
    120,
    121,
    122,
    123,
    124,
    125,
    126,
    127,
    128,
    129,
    130,
    131,
    132,
    133,
    134,
    135,
    136,
    137,
    138,
    139,
    140,
    141,
    142,
    143,
    144,
    145,
    146,
    147,
    148,
    149,
    150,
    151,
    152,
    153,
    154,
    155,
    156,
    157,
    158,
    159,
    160,
    161,
    162,
    163,
    164,
    165,
    166,
    167,
    168,
    169,
    170,
    171,
    172,
    173,
    174,
    175,
    176,
    177,
    178,
    179,
    180,
    181,
    182,
    183,
    184,
    185,
    186,
    187,
    188,
    189,
    190,
    191,
    192,
    193,
    194,
    195,
    196,
    197,
    198,
    199,
    200,
    201,
    202,
    203,
    204,
    205,
    206,
    207,
    208,
    209,
    210,
    211,
    212,
    213,
    214,
    215,
    216,
    217,
    218,
    219,
    220,
    221,
    222,
    223,
    224,
    225,
    226,
    227,
    228,
    229,
    230,
    231,
    232,
    233,
    234,
    235,
    236,
    237,
    238,
    239,
    240,
    241,
    242,
    243,
    244,
    245,
    246,
    247,
    248,
    249,
    250,
    251,
    252,
    253,
    254,
    255,
    256
   ],
   "AcquisitionTime": [
    "093027.310000",
    "093029.310000",
    "093031.310000",
    "093033.310000",
    "093035.310000",
    "093037.310000",
    "093039.310000",
    "093041.310000",
    "093043.310000",
    "093045.310000",
    "093047.310000",
    "093049.310000",
    "093051.310000",
    "093053.310000",
    "093055.310000",
    "093057.310000",
    "093059.310000",
    "093101.310000",
    "093103.310000",
    "093105.310000",
    "093107.310000",
    "093109.310000",
    "093111.310000",
    "093113.310000",
    "093115.310000",
    "093117.310000",
    "093119.310000",
    "093121.310000",
    "093123.310000",
    "093125.310000",
    "093127.310000",
    "093129.310000",
    "093131.310000",
    "093133.310000",
    "093135.310000",
    "093137.310000",
    "093139.310000",
    "093141.310000",
    "093143.310000",
    "093145.310000",
    "093147.310000",
    "093149.310000",
    "093151.310000",
    "093153.310000",
    "093155.310000",
    "093157.310000",
    "093159.310000",
    "093201.310000",
    "093203.310000",
    "093205.310000",
    "093207.310000",
    "093209.310000",
    "093211.310000",
    "093213.310000",
    "093215.310000",
    "093217.310000",
    "093219.310000",
    "093221.310000",
    "093223.310000",
    "093225.310000",
    "093227.310000",
    "093229.310000",
    "093231.310000",
    "093233.310000",
    "093235.310000",
    "093237.310000",
    "093239.310000",
    "093241.310000",
    "093243.310000",
    "093245.310000",
    "093247.310000",
    "093249.310000",
    "093251.310000",
    "093253.310000",
    "093255.310000",
    "093257.310000",
    "093259.310000",
    "093301.310000",
    "093303.310000",
    "093305.310000",
    "093307.310000",
    "093309.310000",
    "093311.310000",
    "093313.310000",
    "093315.310000",
    "093317.310000",
    "093319.310000",
    "093321.310000",
    "093323.310000",
    "093325.310000",
    "093327.310000",
    "093329.310000",
    "093331.310000",
    "093333.310000",
    "093335.310000",
    "093337.310000",
    "093339.310000",
    "093341.310000",
    "093343.310000",
    "093345.310000",
    "093347.310000",
    "093349.310000",
    "093351.310000",
    "093353.310000",
    "093355.310000",
    "093357.310000",
    "093359.310000",
    "093401.310000",
    "093403.310000",
    "093405.310000",
    "093407.310000",
    "093409.310000",
    "093411.310000",
    "093413.310000",
    "093415.310000",
    "093417.310000",
    "093419.310000",
    "093421.310000",
    "093423.310000",
    "093425.310000",
    "093427.310000",
    "093429.310000",
    "093431.310000",
    "093433.310000",
    "093435.310000",
    "093437.310000",
    "093439.310000",
    "093441.310000",
    "093443.310000",
    "093445.310000",
    "093447.310000",
    "093449.310000",
    "093451.310000",
    "093453.310000",
    "093455.310000",
    "093457.310000",
    "093459.310000",
    "093501.310000",
    "093503.310000",
    "093505.310000",
    "093507.310000",
    "093509.310000",
    "093511.310000",
    "093513.310000",
    "093515.310000",
    "093517.310000",
    "093519.310000",
    "093521.310000",
    "093523.310000",
    "093525.310000",
    "093527.310000",
    "093529.310000",
    "093531.310000",
    "093533.310000",
    "093535.310000",
    "093537.310000",
    "093539.310000",
    "093541.310000",
    "093543.310000",
    "093545.310000",
    "093547.310000",
    "093549.310000",
    "093551.310000",
    "093553.310000",
    "093555.310000",
    "093557.310000",
    "093559.310000",
    "093601.310000",
    "093603.310000",
    "093605.310000",
    "093607.310000",
    "093609.310000",
    "093611.310000",
    "093613.310000",
    "093615.310000",
    "093617.310000",
    "093619.310000",
    "093621.310000",
    "093623.310000",
    "093625.310000",
    "093627.310000",
    "093629.310000",
    "093631.310000",
    "093633.310000",
    "093635.310000",
    "093637.310000",
    "093639.310000",
    "093641.310000",
    "093643.310000",
    "093645.310000",
    "093647.310000",
    "093649.310000",
    "093651.310000",
    "093653.310000",
    "093655.310000",
    "093657.310000",
    "093659.310000",
    "093701.310000",
    "093703.310000",
    "093705.310000",
    "093707.310000",
    "093709.310000",
    "093711.310000",
    "093713.310000",
    "093715.310000",
    "093717.310000",
    "093719.310000",
    "093721.310000",
    "093723.310000",
    "093725.310000",
    "093727.310000",
    "093729.310000",
    "093731.310000",
    "093733.310000",
    "093735.310000",
    "093737.310000",
    "093739.310000",
    "093741.310000",
    "093743.310000",
    "093745.310000",
    "093747.310000",
    "093749.310000",
    "093751.310000",
    "093753.310000",
    "093755.310000",
    "093757.310000",
    "093759.310000",
    "093801.310000",
    "093803.310000",
    "093805.310000",
    "093807.310000",
    "093809.310000",
    "093811.310000",
    "093813.310000",
    "093815.310000",
    "093817.310000",
    "093819.310000",
    "093821.310000",
    "093823.310000",
    "093825.310000",
    "093827.310000",
    "093829.310000",
    "093831.310000",
    "093833.310000",
    "093835.310000",
    "093837.310000",
    "093839.310000",
    "093841.310000",
    "093843.310000",
    "093845.310000",
    "093847.310000",
    "093849.310000",
    "093851.310000",
    "093853.310000",
    "093855.310000",
    "093857.310000"
   ],
   "ContentTime": [
    "093029.986000",
    "093031.481000",
    "093033.481000",
    "093035.481000",
    "093037.481000",
    "093039.482000",
    "093041.482000",
    "093043.482000",
    "093045.482000",
    "093047.482000",
    "093049.481000",
    "093051.482000",
    "093053.481000",
    "093055.482000",
    "093057.482000",
    "093059.482000",
    "093101.483000",
    "093103.481000",
    "093105.481000",
    "093107.482000",
    "093109.481000",
    "093111.482000",
    "093113.481000",
    "093115.481000",
    "093117.483000",
    "093119.481000",
    "093121.481000",
    "093123.482000",
    "093125.481000",
    "093127.482000",
    "093129.481000",
    "093131.481000",
    "093133.481000",
    "093135.482000",
    "093137.482000",
    "093139.482000",
    "093141.482000",
    "093143.482000",
    "093145.481000",
    "093147.482000",
    "093149.481000",
    "093151.482000",
    "093153.482000",
    "093155.481000",
    "093157.481000",
    "093159.482000",
    "093201.481000",
    "093203.482000",
    "093205.482000",
    "093207.481000",
    "093209.483000",
    "093211.482000",
    "093213.481000",
    "093215.481000",
    "093217.481000",
    "093219.481000",
    "093221.481000",
    "093223.481000",
    "093225.481000",
    "093227.482000",
    "093229.482000",
    "093231.481000",
    "093233.482000",
    "093235.481000",
    "093237.482000",
    "093239.481000",
    "093241.482000",
    "093243.482000",
    "093245.482000",
    "093247.481000",
    "093249.482000",
    "093251.481000",
    "093253.482000",
    "093255.481000",
    "093257.481000",
    "093259.481000",
    "093301.482000",
    "093303.483000",
    "093305.481000",
    "093307.481000",
    "093309.481000",
    "093311.481000",
    "093313.482000",
    "093315.482000",
    "093317.482000",
    "093319.482000",
    "093321.483000",
    "093323.482000",
    "093325.481000",
    "093327.482000",
    "093329.482000",
    "093331.481000",
    "093333.481000",
    "093335.482000",
    "093337.483000",
    "093339.481000",
    "093341.482000",
    "093343.481000",
    "093345.481000",
    "093347.481000",
    "093349.482000",
    "093351.482000",
    "093353.481000",
    "093355.482000",
    "093357.482000",
    "093359.481000",
    "093401.482000",
    "093403.481000",
    "093405.481000",
    "093407.482000",
    "093409.481000",
    "093411.483000",
    "093413.482000",
    "093415.482000",
    "093417.482000",
    "093419.482000",
    "093421.481000",
    "093423.481000",
    "093425.481000",
    "093427.482000",
    "093429.482000",
    "093431.483000",
    "093433.482000",
    "093435.482000",
    "093437.482000",
    "093439.482000",
    "093441.481000",
    "093443.481000",
    "093445.481000",
    "093447.483000",
    "093449.481000",
    "093451.481000",
    "093453.481000",
    "093455.482000",
    "093457.481000",
    "093459.481000",
    "093501.481000",
    "093503.482000",
    "093505.482000",
    "093507.481000",
    "093509.481000",
    "093511.482000",
    "093513.481000",
    "093515.482000",
    "093517.482000",
    "093519.482000",
    "093521.483000",
    "093523.483000",
    "093525.481000",
    "093527.482000",
    "093529.482000",
    "093531.482000",
    "093533.481000",
    "093535.482000",
    "093537.482000",
    "093539.482000",
    "093541.483000",
    "093543.482000",
    "093545.481000",
    "093547.482000",
    "093549.482000",
    "093551.481000",
    "093553.482000",
    "093555.482000",
    "093557.482000",
    "093559.482000",
    "093601.481000",
    "093603.481000",
    "093605.482000",
    "093607.482000",
    "093609.481000",
    "093611.481000",
    "093613.483000",
    "093615.483000",
    "093617.481000",
    "093619.481000",
    "093621.481000",
    "093623.481000",
    "093625.482000",
    "093627.482000",
    "093629.482000",
    "093631.482000",
    "093633.482000",
    "093635.481000",
    "093637.482000",
    "093639.482000",
    "093641.482000",
    "093643.481000",
    "093645.481000",
    "093647.481000",
    "093649.483000",
    "093651.483000",
    "093653.482000",
    "093655.481000",
    "093657.481000",
    "093659.482000",
    "093701.482000",
    "093703.482000",
    "093705.482000",
    "093707.482000",
    "093709.482000",
    "093711.482000",
    "093713.482000",
    "093715.482000",
    "093717.482000",
    "093719.482000",
    "093721.482000",
    "093723.482000",
    "093725.482000",
    "093727.481000",
    "093729.481000",
    "093731.481000",
    "093733.481000",
    "093735.481000",
    "093737.482000",
    "093739.481000",
    "093741.482000",
    "093743.483000",
    "093745.481000",
    "093747.481000",
    "093749.482000",
    "093751.481000",
    "093753.482000",
    "093755.482000",
    "093757.482000",
    "093759.482000",
    "093801.483000",
    "093803.481000",
    "093805.482000",
    "093807.482000",
    "093809.481000",
    "093811.482000",
    "093813.482000",
    "093815.482000",
    "093817.483000",
    "093819.481000",
    "093821.482000",
    "093823.481000",
    "093825.481000",
    "093827.481000",
    "093829.482000",
    "093831.482000",
    "093833.483000",
    "093835.482000",
    "093837.481000",
    "093839.481000",
    "093841.481000",
    "093843.482000",
    "093845.482000",
    "093847.481000",
    "093849.481000",
    "093851.482000",
    "093853.483000",
    "093855.481000",
    "093857.481000",
    "093859.257000"
   ],
   "InstanceCreationTime": [
    "093029.986000",
    "093031.481000",
    "093033.481000",
    "093035.481000",
    "093037.481000",
    "093039.482000",
    "093041.482000",
    "093043.482000",
    "093045.482000",
    "093047.482000",
    "093049.481000",
    "093051.482000",
    "093053.481000",
    "093055.482000",
    "093057.482000",
    "093059.482000",
    "093101.483000",
    "093103.481000",
    "093105.481000",
    "093107.482000",
    "093109.481000",
    "093111.482000",
    "093113.481000",
    "093115.481000",
    "093117.483000",
    "093119.481000",
    "093121.481000",
    "093123.482000",
    "093125.481000",
    "093127.482000",
    "093129.481000",
    "093131.481000",
    "093133.481000",
    "093135.482000",
    "093137.482000",
    "093139.482000",
    "093141.482000",
    "093143.482000",
    "093145.481000",
    "093147.482000",
    "093149.481000",
    "093151.482000",
    "093153.482000",
    "093155.481000",
    "093157.481000",
    "093159.482000",
    "093201.481000",
    "093203.482000",
    "093205.482000",
    "093207.481000",
    "093209.483000",
    "093211.482000",
    "093213.481000",
    "093215.481000",
    "093217.481000",
    "093219.481000",
    "093221.481000",
    "093223.481000",
    "093225.481000",
    "093227.482000",
    "093229.482000",
    "093231.481000",
    "093233.482000",
    "093235.481000",
    "093237.482000",
    "093239.481000",
    "093241.482000",
    "093243.482000",
    "093245.482000",
    "093247.481000",
    "093249.482000",
    "093251.481000",
    "093253.482000",
    "093255.481000",
    "093257.481000",
    "093259.481000",
    "093301.482000",
    "093303.483000",
    "093305.481000",
    "093307.481000",
    "093309.481000",
    "093311.481000",
    "093313.482000",
    "093315.482000",
    "093317.482000",
    "093319.482000",
    "093321.483000",
    "093323.482000",
    "093325.481000",
    "093327.482000",
    "093329.482000",
    "093331.481000",
    "093333.481000",
    "093335.482000",
    "093337.483000",
    "093339.481000",
    "093341.482000",
    "093343.481000",
    "093345.481000",
    "093347.481000",
    "093349.482000",
    "093351.482000",
    "093353.481000",
    "093355.482000",
    "093357.482000",
    "093359.481000",
    "093401.482000",
    "093403.481000",
    "093405.481000",
    "093407.482000",
    "093409.481000",
    "093411.483000",
    "093413.482000",
    "093415.482000",
    "093417.482000",
    "093419.482000",
    "093421.481000",
    "093423.481000",
    "093425.481000",
    "093427.482000",
    "093429.482000",
    "093431.483000",
    "093433.482000",
    "093435.482000",
    "093437.482000",
    "093439.482000",
    "093441.481000",
    "093443.481000",
    "093445.481000",
    "093447.483000",
    "093449.481000",
    "093451.481000",
    "093453.481000",
    "093455.482000",
    "093457.481000",
    "093459.481000",
    "093501.481000",
    "093503.482000",
    "093505.482000",
    "093507.481000",
    "093509.481000",
    "093511.482000",
    "093513.481000",
    "093515.482000",
    "093517.482000",
    "093519.482000",
    "093521.483000",
    "093523.483000",
    "093525.481000",
    "093527.482000",
    "093529.482000",
    "093531.482000",
    "093533.481000",
    "093535.482000",
    "093537.482000",
    "093539.482000",
    "093541.483000",
    "093543.482000",
    "093545.481000",
    "093547.482000",
    "093549.482000",
    "093551.481000",
    "093553.482000",
    "093555.482000",
    "093557.482000",
    "093559.482000",
    "093601.481000",
    "093603.481000",
    "093605.482000",
    "093607.482000",
    "093609.481000",
    "093611.481000",
    "093613.483000",
    "093615.483000",
    "093617.481000",
    "093619.481000",
    "093621.481000",
    "093623.481000",
    "093625.482000",
    "093627.482000",
    "093629.482000",
    "093631.482000",
    "093633.482000",
    "093635.481000",
    "093637.482000",
    "093639.482000",
    "093641.482000",
    "093643.481000",
    "093645.481000",
    "093647.481000",
    "093649.483000",
    "093651.483000",
    "093653.482000",
    "093655.481000",
    "093657.481000",
    "093659.482000",
    "093701.482000",
    "093703.482000",
    "093705.482000",
    "093707.482000",
    "093709.482000",
    "093711.482000",
    "093713.482000",
    "093715.482000",
    "093717.482000",
    "093719.482000",
    "093721.482000",
    "093723.482000",
    "093725.482000",
    "093727.481000",
    "093729.481000",
    "093731.481000",
    "093733.481000",
    "093735.481000",
    "093737.482000",
    "093739.481000",
    "093741.482000",
    "093743.483000",
    "093745.481000",
    "093747.481000",
    "093749.482000",
    "093751.481000",
    "093753.482000",
    "093755.482000",
    "093757.482000",
    "093759.482000",
    "093801.483000",
    "093803.481000",
    "093805.482000",
    "093807.482000",
    "093809.481000",
    "093811.482000",
    "093813.482000",
    "093815.482000",
    "093817.483000",
    "093819.481000",
    "093821.482000",
    "093823.481000",
    "093825.481000",
    "093827.481000",
    "093829.482000",
    "093831.482000",
    "093833.483000",
    "093835.482000",
    "093837.481000",
    "093839.481000",
    "093841.481000",
    "093843.482000",
    "093845.482000",
    "093847.481000",
    "093849.481000",
    "093851.482000",
    "093853.483000",
    "093855.481000",
    "093857.481000",
    "093859.257000"
   ],
   "InstanceNumber": [
    1,
    2,
    3,
    4,
    5,
    6,
    7,
    8,
    9,
    10,
    11,
    12,
    13,
    14,
    15,
    16,
    17,
    18,
    19,
    20,
    21,
    22,
    23,
    24,
    25,
    26,
    27,
    28,
    29,
    30,
    31,
    32,
    33,
    34,
    35,
    36,
    37,
    38,
    39,
    40,
    41,
    42,
    43,
    44,
    45,
    46,
    47,
    48,
    49,
    50,
    51,
    52,
    53,
    54,
    55,
    56,
    57,
    58,
    59,
    60,
    61,
    62,
    63,
    64,
    65,
    66,
    67,
    68,
    69,
    70,
    71,
    72,
    73,
    74,
    75,
    76,
    77,
    78,
    79,
    80,
    81,
    82,
    83,
    84,
    85,
    86,
    87,
    88,
    89,
    90,
    91,
    92,
    93,
    94,
    95,
    96,
    97,
    98,
    99,
    100,
    101,
    102,
    103,
    104,
    105,
    106,
    107,
    108,
    109,
    110,
    111,
    112,
    113,
    114,
    115,
    116,
    117,
    118,
    119,
    120,
    121,
    122,
    123,
    124,
    125,
    126,
    127,
    128,
    129,
    130,
    131,
    132,
    133,
    134,
    135,
    136,
    137,
    138,
    139,
    140,
    141,
    142,
    143,
    144,
    145,
    146,
    147,
    148,
    149,
    150,
    151,
    152,
    153,
    154,
    155,
    156,
    157,
    158,
    159,
    160,
    161,
    162,
    163,
    164,
    165,
    166,
    167,
    168,
    169,
    170,
    171,
    172,
    173,
    174,
    175,
    176,
    177,
    178,
    179,
    180,
    181,
    182,
    183,
    184,
    185,
    186,
    187,
    188,
    189,
    190,
    191,
    192,
    193,
    194,
    195,
    196,
    197,
    198,
    199,
    200,
    201,
    202,
    203,
    204,
    205,
    206,
    207,
    208,
    209,
    210,
    211,
    212,
    213,
    214,
    215,
    216,
    217,
    218,
    219,
    220,
    221,
    222,
    223,
    224,
    225,
    226,
    227,
    228,
    229,
    230,
    231,
    232,
    233,
    234,
    235,
    236,
    237,
    238,
    239,
    240,
    241,
    242,
    243,
    244,
    245,
    246,
    247,
    248,
    249,
    250,
    251,
    252,
    253,
    254,
    255,
    256
   ],
   "LargestImagePixelValue": [
    3707,
    3602,
    3609,
    3575,
    3588,
    3565,
    3561,
    3563,
    3529,
    3539,
    3550,
    3534,
    3536,
    3555,
    3548,
    3572,
    3551,
    3577,
    3575,
    3553,
    3552,
    3545,
    3598,
    3529,
    3561,
    3574,
    3561,
    3534,
    3519,
    3522,
    3514,
    3491,
    3508,
    3538,
    3538,
    3522,
    3497,
    3480,
    3543,
    3545,
    3549,
    3509,
    3545,
    3479,
    3511,
    3495,
    3536,
    3476,
    3522,
    3480,
    3503,
    3454,
    3487,
    3498,
    3510,
    3499,
    3517,
    3547,
    3476,
    3442,
    3454,
    3473,
    3433,
    3505,
    3466,
    3472,
    3467,
    3446,
    3516,
    3519,
    3569,
    3479,
    3538,
    3550,
    3505,
    3508,
    3505,
    3527,
    3493,
    3499,
    3465,
    3508,
    3501,
    3481,
    3478,
    3471,
    3435,
    3439,
    3448,
    3490,
    3492,
    3452,
    3476,
    3444,
    3431,
    3422,
    3412,
    3463,
    3424,
    3454,
    3440,
    3417,
    3465,
    3401,
    3490,
    3490,
    3479,
    3508,
    3499,
    3545,
    3512,
    3524,
    3544,
    3455,
    3483,
    3490,
    3494,
    3527,
    3550,
    3474,
    3460,
    3469,
    3400,
    3388,
    3382,
    3364,
    3402,
    3423,
    3359,
    3410,
    3387,
    3421,
    3373,
    3407,
    3409,
    3447,
    3426,
    3437,
    3423,
    3388,
    3445,
    3406,
    3381,
    3391,
    3350,
    3365,
    3310,
    3504,
    3399,
    3395,
    3471,
    3500,
    3460,
    3454,
    3432,
    3460,
    3439,
    3435,
    3443,
    3435,
    3446,
    3386,
    3377,
    3390,
    3354,
    3419,
    3394,
    3353,
    3343,
    3291,
    3491,
    3450,
    3465,
    3357,
    3403,
    3375,
    3366,
    3372,
    3373,
    3392,
    3414,
    3463,
    3425,
    3440,
    3418,
    3463,
    3402,
    3296,
    3452,
    3457,
    3387,
    3417,
    3370,
    3344,
    3362,
    3362,
    3361,
    3352,
    3354,
    3371,
    3358,
    3342,
    3357,
    3357,
    3353,
    3308,
    3352,
    3333,
    3343,
    3316,
    3319,
    3323,
    3291,
    3318,
    3339,
    3331,
    3326,
    3310,
    3323,
    3340,
    3316,
    3356,
    3329,
    3340,
    3343,
    3318,
    3331,
    3293,
    3277,
    3304,
    3264,
    3294,
    3276,
    3289,
    3299,
    3258,
    3284,
    3277,
    3268,
    3264,
    3321,
    3291,
    3336,
    3271,
    3335,
    3323,
    3316,
    3366,
    3253,
    3272,
    3259,
    3308,
    3294,
    3336,
    3333,
    3311
   ],
   "WindowCenter": [
    797.0,
    795.0,
    795.0,
    796.0,
    795.0,
    796.0,
    796.0,
    798.0,
    797.0,
    799.0,
    799.0,
    799.0,
    797.0,
    797.0,
    795.0,
    795.0,
    794.0,
    794.0,
    794.0,
    794.0,
    794.0,
    794.0,
    795.0,
    795.0,
    795.0,
    795.0,
    796.0,
    796.0,
    796.0,
    796.0,
    796.0,
    796.0,
    795.0,
    794.0,
    794.0,
    794.0,
    794.0,
    794.0,
    795.0,
    795.0,
    795.0,
    794.0,
    794.0,
    794.0,
    794.0,
    794.0,
    795.0,
    795.0,
    795.0,
    795.0,
    795.0,
    795.0,
    795.0,
    794.0,
    793.0,
    792.0,
    792.0,
    794.0,
    795.0,
    796.0,
    796.0,
    796.0,
    796.0,
    796.0,
    796.0,
    796.0,
    795.0,
    793.0,
    791.0,
    790.0,
    790.0,
    789.0,
    791.0,
    791.0,
    790.0,
    790.0,
    791.0,
    792.0,
    794.0,
    794.0,
    793.0,
    793.0,
    794.0,
    795.0,
    795.0,
    795.0,
    794.0,
    794.0,
    794.0,
    793.0,
    794.0,
    795.0,
    795.0,
    794.0,
    795.0,
    794.0,
    795.0,
    795.0,
    795.0,
    794.0,
    795.0,
    794.0,
    796.0,
    795.0,
    793.0,
    793.0,
    791.0,
    790.0,
    788.0,
    788.0,
    789.0,
    790.0,
    791.0,
    791.0,
    792.0,
    791.0,
    790.0,
    789.0,
    791.0,
    792.0,
    793.0,
    793.0,
    794.0,
    794.0,
    794.0,
    794.0,
    795.0,
