{
  "AcquisitionMatrixPE": 100,
  "AcquisitionNumber": 1,
  "AcquisitionTime": "10:35:58.982500",
  "BandwidthPerPixelPhaseEncode": 18.519,
  "BaseResolution": 100,
  "BodyPartExamined": "BRAIN",
  "ConsistencyInfo": "N4_VE11C_LATEST_20160120",
  "ConversionSoftware": "dcm2niix",
  "ConversionSoftwareVersion": "v1.0.20180622 GCC4.9.2",
  "DerivedVendorReportedEchoSpacing": 0.000539986,
  "DeviceSerialNumber": "166078",
  "DwellTime": 2.1e-06,
  "EchoTime": 0.034,
  "EchoTrainLength": 100,
  "EffectiveEchoSpacing": 0.000539986,
  "FlipAngle": 90,
  "ImageOrientationPatientDICOM": [0.998971, -0.00927651, -0.0444044, -3.77677e-08, 0.978867, -0.204496],
  "ImageType": [
    "ORIGINAL",
    "PRIMARY",
    "M",
    "ND",
    "MOSAIC"
],
  "InPlanePhaseEncodingDirectionDICOM": "COL",
  "InstitutionAddress": "Street_StreetNo_Bei_Jing_District_CN_ZIP",
  "InstitutionName": "BeiJing_Normal_University",
  "InstitutionalDepartmentName": "Department",
  "MRAcquisitionType": "2D",
  "MagneticFieldStrength": 3,
  "Manufacturer": "Siemens",
  "ManufacturersModelName": "Prisma",
  "Modality": "MR",
  "MultibandAccelerationFactor": 3,
  "PartialFourier": 1,
  "PatientPosition": "HFS",
  "PercentPhaseFOV": 100,
  "PhaseEncodingDirection": "j-",
  "PhaseEncodingSteps": 100,
  "PhaseResolution": 1,
  "PixelBandwidth": 2380,
  "ProcedureStepDescription": "BNU_P2018_64CH_Zhen.ZongLei",
  "ProtocolName": "bold_100x100_s3_2x2x2_static_256",
  "PulseSequenceDetails": "%SiemensSeq%_ep2d_bold",
  "ReceiveCoilActiveElements": "HC1-7;NC1",
  "ReceiveCoilName": "HeadNeck_64",
  "ReconMatrixPE": 100,
  "RepetitionTime": 2,
  "SAR": 0.0700441,
  "ScanOptions": "FS",
  "ScanningSequence": "EP",
  "SequenceName": "_epfid2d1_100",
  "SequenceVariant": "SK",
  "SeriesDescription": "bold_100x100_s3_2x2x2_static_256",
  "SeriesNumber": 16,
  "ShimSetting": [-5462, -11509, -1272, 375, -24, -291, -99, 95],
  "SliceThickness": 2,
  "SliceTiming": [1.485, 0, 0.99, 0.0825, 1.0725, 0.165, 1.155, 0.2475, 1.2375, 0.33, 1.32, 0.4125, 1.4025, 0.5775, 1.5675, 0.66, 1.65, 0.7425, 1.7325, 0.825, 1.815, 0.9075, 1.8975, 0.495, 1.485, 0, 0.99, 0.0825, 1.0725, 0.165, 1.155, 0.2475, 1.2375, 0.33, 1.32, 0.4125, 1.4025, 0.5775, 1.5675, 0.66, 1.65, 0.7425, 1.7325, 0.825, 1.815, 0.9075, 1.8975, 0.495, 1.485, 0, 0.99, 0.0825, 1.0725, 0.165, 1.155, 0.2475, 1.2375, 0.33, 1.32, 0.4125, 1.4025, 0.5775, 1.5675, 0.66, 1.65, 0.7425, 1.7325, 0.825, 1.815, 0.9075, 1.8975, 0.495],
  "SoftwareVersions": "syngo_MR_E11",
  "SpacingBetweenSlices": 2,
  "StationName": "AWP166078",
  "TaskName": "naturalvision",
  "TotalReadoutTime": 0.0534586,
  "TxRefAmp": 232.351,
  "dcmmeta_affine": [
    [-1.9979411363601685, -7.553536818249995e-08, -0.09072596579790115, 103.11783599853516],
    [0.018553027883172035, 1.9577348232269287, -0.4085710942745209, -76.18773651123047],
    [-0.08880870044231415, 0.40899211168289185, 1.9557194709777832, -101.91925811767578],
    [0.0, 0.0, 0.0, 1.0]
],
  "dcmmeta_reorient_transform": [
    [0.0, -1.0, 0.0, 99.0],
    [1.0, 0.0, 0.0, 0.0],
    [0.0, 0.0, 1.0, 0.0],
    [0.0, 0.0, 0.0, 1.0]
],
  "dcmmeta_shape": [100, 100, 72, 256],
  "dcmmeta_slice_dim": 2,
  "dcmmeta_version": 0.6,
  "global": {
    "const": {
      "AcquisitionMatrix": [100, 0, 0, 100],
      "AngioFlag": "N",
      "BitsAllocated": 16,
      "BitsStored": 12,
      "BodyPartExamined": "BRAIN",
      "Columns": 900,
      "EchoNumbers": 1,
      "EchoTime": 34.0,
      "EchoTrainLength": 100,
      "FlipAngle": 90.0,
      "HighBit": 11,
      "ImageOrientationPatient": [0.99897057010123, -0.0092765134931, -0.0444043507895, -3.7767684e-08, 0.97886738944877, -0.2044960485529],
      "ImagePositionPatient": [-902.29425136658, -893.30071078439, 137.69127524069],
      "ImageType": [
        "ORIGINAL",
        "PRIMARY",
        "M",
        "ND",
        "MOSAIC"
],
      "ImagedNucleus": "1H",
      "ImagingFrequency": 123.257734,
      "InPlanePhaseEncodingDirection": "COL",
      "MRAcquisitionType": "2D",
      "MagneticFieldStrength": 3.0,
      "Manufacturer": "SIEMENS",
      "ManufacturerModelName": "Prisma",
      "Modality": "MR",
      "NumberOfAverages": 1.0,
      "NumberOfPhaseEncodingSteps": 100,
      "PercentPhaseFieldOfView": 100.0,
      "PercentSampling": 100.0,
      "PerformedProcedureStepStartTime": "085013.174000",
      "PhotometricInterpretation": "MONOCHROME2",
      "PixelBandwidth": 2380.0,
      "PixelRepresentation": 0,
      "PixelSpacing": [2.0, 2.0],
      "ProtocolName": "bold_100x100_s3_2x2x2_static_256",
      "RepetitionTime": 2000.0,
      "Rows": 900,
      "SAR": 0.07004414373992,
      "SamplesPerPixel": 1,
      "ScanOptions": "FS",
      "ScanningSequence": "EP",
      "SequenceName": "*epfid2d1_100",
      "SequenceVariant": "SK",
      "SeriesDescription": "bold_100x100_s3_2x2x2_static_256",
      "SeriesNumber": 16,
      "SeriesTime": "103601.746000",
      "SliceLocation": -88.776420660026,
      "SliceThickness": 2.0,
      "SmallestImagePixelValue": 0,
      "SoftwareVersions": "syngo MR E11",
      "SpacingBetweenSlices": 2.0000000519717,
      "SpecificCharacterSet": "ISO_IR 100",
      "StudyID": "1",
      "StudyTime": "085013.106000",
      "TransmitCoilName": "Body",
      "VariableFlipAngleFlag": "N",
      "WindowCenterWidthExplanation": "Algo1",
      "dBdt": 0.0},
    "slices": {}
  },
  "time": {
    "samples": {
      "AcquisitionNumber": [1, 2, 3, 4, 5, 6, 7, 8, 9, 10, 11, 12, 13, 14, 15, 16, 17, 18, 19, 20, 21, 22, 23, 24, 25, 26, 27, 28, 29, 30, 31, 32, 33, 34, 35, 36, 37, 38, 39, 40, 41, 42, 43, 44, 45, 46, 47, 48, 49, 50, 51, 52, 53, 54, 55, 56, 57, 58, 59, 60, 61, 62, 63, 64, 65, 66, 67, 68, 69, 70, 71, 72, 73, 74, 75, 76, 77, 78, 79, 80, 81, 82, 83, 84, 85, 86, 87, 88, 89, 90, 91, 92, 93, 94, 95, 96, 97, 98, 99, 100, 101, 102, 103, 104, 105, 106, 107, 108, 109, 110, 111, 112, 113, 114, 115, 116, 117, 118, 119, 120, 121, 122, 123, 124, 125, 126, 127, 128, 129, 130, 131, 132, 133, 134, 135, 136, 137, 138, 139, 140, 141, 142, 143, 144, 145, 146, 147, 148, 149, 150, 151, 152, 153, 154, 155, 156, 157, 158, 159, 160, 161, 162, 163, 164, 165, 166, 167, 168, 169, 170, 171, 172, 173, 174, 175, 176, 177, 178, 179, 180, 181, 182, 183, 184, 185, 186, 187, 188, 189, 190, 191, 192, 193, 194, 195, 196, 197, 198, 199, 200, 201, 202, 203, 204, 205, 206, 207, 208, 209, 210, 211, 212, 213, 214, 215, 216, 217, 218, 219, 220, 221, 222, 223, 224, 225, 226, 227, 228, 229, 230, 231, 232, 233, 234, 235, 236, 237, 238, 239, 240, 241, 242, 243, 244, 245, 246, 247, 248, 249, 250, 251, 252, 253, 254, 255, 256],
      "AcquisitionTime": ["103558.982500", "103600.982500", "103602.982500", "103604.982500", "103606.982500", "103608.982500", "103610.982500", "103612.982500", "103614.982500", "103616.982500", "103618.982500", "103620.982500", "103622.982500", "103624.982500", "103626.982500", "103628.982500", "103630.982500", "103632.982500", "103634.982500", "103636.982500", "103638.982500", "103640.982500", "103642.982500", "103644.982500", "103646.982500", "103648.982500", "103650.982500", "103652.982500", "103654.982500", "103656.982500", "103658.982500", "103700.982500", "103702.982500", "103704.982500", "103706.982500", "103708.982500", "103710.982500", "103712.982500", "103714.982500", "103716.982500", "103718.982500", "103720.982500", "103722.982500", "103724.982500", "103726.982500", "103728.982500", "103730.982500", "103732.982500", "103734.982500", "103736.982500", "103738.982500", "103740.982500", "103742.982500", "103744.982500", "103746.982500", "103748.982500", "103750.982500", "103752.982500", "103754.982500", "103756.982500", "103758.982500", "103800.982500", "103802.982500", "103804.982500", "103806.982500", "103808.982500", "103810.982500", "103812.982500", "103814.982500", "103816.982500", "103818.982500", "103820.982500", "103822.982500", "103824.982500", "103826.982500", "103828.982500", "103830.982500", "103832.982500", "103834.982500", "103836.982500", "103838.982500", "103840.982500", "103842.982500", "103844.982500", "103846.982500", "103848.982500", "103850.982500", "103852.982500", "103854.982500", "103856.982500", "103858.982500", "103900.982500", "103902.982500", "103904.982500", "103906.982500", "103908.982500", "103910.982500", "103912.982500", "103914.982500", "103916.982500", "103918.982500", "103920.982500", "103922.982500", "103924.982500", "103926.982500", "103928.982500", "103930.982500", "103932.982500", "103934.982500", "103936.982500", "103938.982500", "103940.982500", "103942.982500", "103944.982500", "103946.982500", "103948.982500", "103950.982500", "103952.982500", "103954.982500", "103956.982500", "103958.982500", "104000.982500", "104002.982500", "104004.982500", "104006.982500", "104008.982500", "104010.982500", "104012.982500", "104014.982500", "104016.982500", "104018.982500", "104020.982500", "104022.982500", "104024.982500", "104026.982500", "104028.982500", "104030.982500", "104032.982500", "104034.982500", "104036.982500", "104038.982500", "104040.982500", "104042.982500", "104044.982500", "104046.982500", "104048.982500", "104050.982500", "104052.982500", "104054.982500", "104056.982500", "104058.982500", "104100.982500", "104102.982500", "104104.982500", "104106.982500", "104108.982500", "104110.982500", "104112.982500", "104114.982500", "104116.982500", "104118.982500", "104120.982500", "104122.982500", "104124.982500", "104126.982500", "104128.982500", "104130.982500", "104132.982500", "104134.982500", "104136.982500", "104138.982500", "104140.982500", "104142.982500", "104144.982500", "104146.982500", "104148.982500", "104150.982500", "104152.982500", "104154.982500", "104156.982500", "104158.982500", "104200.982500", "104202.982500", "104204.982500", "104206.982500", "104208.982500", "104210.982500", "104212.982500", "104214.982500", "104216.982500", "104218.982500", "104220.982500", "104222.982500", "104224.982500", "104226.982500", "104228.982500", "104230.982500", "104232.982500", "104234.982500", "104236.982500", "104238.982500", "104240.982500", "104242.982500", "104244.982500", "104246.982500", "104248.982500", "104250.982500", "104252.982500", "104254.982500", "104256.982500", "104258.982500", "104300.982500", "104302.982500", "104304.982500", "104306.982500", "104308.982500", "104310.982500", "104312.982500", "104314.982500", "104316.982500", "104318.982500", "104320.982500", "104322.982500", "104324.982500", "104326.982500", "104328.982500", "104330.982500", "104332.982500", "104334.982500", "104336.982500", "104338.982500", "104340.982500", "104342.982500", "104344.982500", "104346.982500", "104348.982500", "104350.982500", "104352.982500", "104354.982500", "104356.982500", "104358.982500", "104400.982500", "104402.982500", "104404.982500", "104406.982500", "104408.982500", "104410.982500", "104412.982500", "104414.982500", "104416.982500", "104418.982500", "104420.982500", "104422.982500", "104424.982500", "104426.982500", "104428.982500"],
      "ContentTime": ["103601.750000", "103602.745000", "103605.246000", "103606.746000", "103608.746000", "103610.746000", "103612.745000", "103614.745000", "103616.746000", "103618.745000", "103620.746000", "103622.745000", "103624.746000", "103626.745000", "103628.746000", "103630.746000", "103633.246000", "103634.745000", "103637.246000", "103638.746000", "103641.245000", "103643.246000", "103644.746000", "103647.246000", "103648.745000", "103650.746000", "103652.745000", "103654.746000", "103656.746000", "103658.745000", "103700.746000", "103702.746000", "103704.746000", "103706.744000", "103708.745000", "103710.746000", "103712.746000", "103714.746000", "103716.745000", "103718.746000", "103720.745000", "103722.746000", "103724.744000", "103726.745000", "103728.745000", "103730.745000", "103732.746000", "103734.746000", "103737.245000", "103738.745000", "103740.746000", "103742.746000", "103744.745000", "103746.745000", "103749.245000", "103751.246000", "103752.745000", "103754.745000", "103756.746000", "103758.744000", "103800.745000", "103802.745000", "103804.745000", "103807.245000", "103808.745000", "103810.745000", "103813.245000", "103814.745000", "103816.744000", "103818.745000", "103820.745000", "103823.246000", "103824.746000", "103826.745000", "103828.746000", "103830.746000", "103833.245000", "103834.744000", "103837.246000", "103838.746000", "103840.745000", "103843.246000", "103844.745000", "103846.746000", "103848.746000", "103850.746000", "103852.745000", "103854.745000", "103856.746000", "103858.745000", "103900.746000", "103902.746000", "103904.745000", "103906.746000", "103909.245000", "103910.746000", "103912.747000", "103914.746000", "103917.246000", "103918.747000", "103920.745000", "103922.745000", "103924.745000", "103926.744000", "103929.246000", "103931.246000", "103932.746000", "103934.745000", "103936.746000", "103938.745000", "103941.246000", "103943.246000", "103944.745000", "103946.746000", "103948.745000", "103950.745000", "103953.245000", "103954.746000", "103956.746000", "103958.745000", "104000.746000", "104002.746000", "104004.745000", "104006.746000", "104009.246000", "104010.745000", "104012.746000", "104014.746000", "104016.745000", "104018.744000", "104020.745000", "104022.746000", "104024.746000", "104026.745000", "104028.745000", "104030.746000", "104032.745000", "104034.745000", "104036.744000", "104038.745000", "104040.745000", "104042.745000", "104044.746000", "104046.745000", "104048.745000", "104050.745000", "104053.245000", "104054.745000", "104056.746000", "104058.745000", "104101.246000", "104102.746000", "104104.745000", "104106.746000", "104108.746000", "104110.746000", "104112.745000", "104114.745000", "104116.745000", "104118.745000", "104120.746000", "104122.746000", "104125.246000", "104126.745000", "104129.245000", "104130.746000", "104132.746000", "104134.746000", "104136.746000", "104138.745000", "104140.746000", "104143.246000", "104144.745000", "104147.245000", "104149.246000", "104150.746000", "104152.745000", "104154.746000", "104156.745000", "104158.746000", "104201.245000", "104202.746000", "104204.746000", "104207.246000", "104208.746000", "104210.746000", "104213.245000", "104215.256000", "104216.745000", "104218.745000", "104220.746000", "104222.746000", "104224.746000", "104226.745000", "104228.746000", "104230.745000", "104232.745000", "104234.745000", "104236.745000", "104238.744000", "104241.246000", "104242.746000", "104244.745000", "104247.246000", "104248.746000", "104250.746000", "104252.746000", "104254.746000", "104256.745000", "104258.746000", "104300.745000", "104302.746000", "104304.746000", "104306.746000", "104308.745000", "104310.746000", "104312.745000", "104314.746000", "104316.745000", "104318.746000", "104320.746000", "104322.746000", "104324.746000", "104326.746000", "104328.746000", "104330.746000", "104333.246000", "104334.746000", "104336.746000", "104338.746000", "104340.745000", "104342.746000", "104344.746000", "104346.745000", "104348.745000", "104350.746000", "104352.746000", "104354.746000", "104356.746000", "104358.746000", "104400.745000", "104402.746000", "104404.746000", "104406.745000", "104409.246000", "104410.746000", "104412.745000", "104414.745000", "104417.246000", "104419.246000", "104420.746000", "104422.745000", "104424.746000", "104426.746000", "104428.746000", "104430.743000"],
      "InstanceCreationTime": ["103601.750000", "103602.745000", "103605.246000", "103606.746000", "103608.746000", "103610.746000", "103612.745000", "103614.745000", "103616.746000", "103618.745000", "103620.746000", "103622.745000", "103624.746000", "103626.745000", "103628.746000", "103630.746000", "103633.246000", "103634.745000", "103637.246000", "103638.746000", "103641.245000", "103643.246000", "103644.746000", "103647.246000", "103648.745000", "103650.746000", "103652.745000", "103654.746000", "103656.746000", "103658.745000", "103700.746000", "103702.746000", "103704.746000", "103706.744000", "103708.745000", "103710.746000", "103712.746000", "103714.746000", "103716.745000", "103718.746000", "103720.745000", "103722.746000", "103724.744000", "103726.745000", "103728.745000", "103730.745000", "103732.746000", "103734.746000", "103737.245000", "103738.745000", "103740.746000", "103742.746000", "103744.745000", "103746.745000", "103749.245000", "103751.246000", "103752.745000", "103754.745000", "103756.746000", "103758.744000", "103800.745000", "103802.745000", "103804.745000", "103807.245000", "103808.745000", "103810.745000", "103813.245000", "103814.745000", "103816.744000", "103818.745000", "103820.745000", "103823.246000", "103824.746000", "103826.745000", "103828.746000", "103830.746000", "103833.245000", "103834.744000", "103837.246000", "103838.746000", "103840.745000", "103843.246000", "103844.745000", "103846.746000", "103848.746000", "103850.746000", "103852.745000", "103854.745000", "103856.746000", "103858.745000", "103900.746000", "103902.746000", "103904.745000", "103906.746000", "103909.245000", "103910.746000", "103912.747000", "103914.746000", "103917.246000", "103918.747000", "103920.745000", "103922.745000", "103924.745000", "103926.744000", "103929.246000", "103931.246000", "103932.746000", "103934.745000", "103936.746000", "103938.745000", "103941.246000", "103943.246000", "103944.745000", "103946.746000", "103948.745000", "103950.745000", "103953.245000", "103954.746000", "103956.746000", "103958.745000", "104000.746000", "104002.746000", "104004.745000", "104006.746000", "104009.246000", "104010.745000", "104012.746000", "104014.746000", "104016.745000", "104018.744000", "104020.745000", "104022.746000", "104024.746000", "104026.745000", "104028.745000", "104030.746000", "104032.745000", "104034.745000", "104036.744000", "104038.745000", "104040.745000", "104042.745000", "104044.746000", "104046.745000", "104048.745000", "104050.745000", "104053.245000", "104054.745000", "104056.746000", "104058.745000", "104101.246000", "104102.746000", "104104.745000", "104106.746000", "104108.746000", "104110.746000", "104112.745000", "104114.745000", "104116.745000", "104118.745000", "104120.746000", "104122.746000", "104125.246000", "104126.745000", "104129.245000", "104130.746000", "104132.746000", "104134.746000", "104136.746000", "104138.745000", "104140.746000", "104143.246000", "104144.745000", "104147.245000", "104149.246000", "104150.746000", "104152.745000", "104154.746000", "104156.745000", "104158.746000", "104201.245000", "104202.746000", "104204.746000", "104207.246000", "104208.746000", "104210.746000", "104213.245000", "104215.256000", "104216.745000", "104218.745000", "104220.746000", "104222.746000", "104224.746000", "104226.745000", "104228.746000", "104230.745000", "104232.745000", "104234.745000", "104236.745000", "104238.744000", "104241.246000", "104242.746000", "104244.745000", "104247.246000", "104248.746000", "104250.746000", "104252.746000", "104254.746000", "104256.745000", "104258.746000", "104300.745000", "104302.746000", "104304.746000", "104306.746000", "104308.745000", "104310.746000", "104312.745000", "104314.746000", "104316.745000", "104318.746000", "104320.746000", "104322.746000", "104324.746000", "104326.746000", "104328.746000", "104330.746000", "104333.246000", "104334.746000", "104336.746000", "104338.746000", "104340.745000", "104342.746000", "104344.746000", "104346.745000", "104348.745000", "104350.746000", "104352.746000", "104354.746000", "104356.746000", "104358.746000", "104400.745000", "104402.746000", "104404.746000", "104406.745000", "104409.246000", "104410.746000", "104412.745000", "104414.745000", "104417.246000", "104419.246000", "104420.746000", "104422.745000", "104424.746000", "104426.746000", "104428.746000", "104430.743000"],
      "InstanceNumber": [1, 2, 3, 4, 5, 6, 7, 8, 9, 10, 11, 12, 13, 14, 15, 16, 17, 18, 19, 20, 21, 22, 23, 24, 25, 26, 27, 28, 29, 30, 31, 32, 33, 34, 35, 36, 37, 38, 39, 40, 41, 42, 43, 44, 45, 46, 47, 48, 49, 50, 51, 52, 53, 54, 55, 56, 57, 58, 59, 60, 61, 62, 63, 64, 65, 66, 67, 68, 69, 70, 71, 72, 73, 74, 75, 76, 77, 78, 79, 80, 81, 82, 83, 84, 85, 86, 87, 88, 89, 90, 91, 92, 93, 94, 95, 96, 97, 98, 99, 100, 101, 102, 103, 104, 105, 106, 107, 108, 109, 110, 111, 112, 113, 114, 115, 116, 117, 118, 119, 120, 121, 122, 123, 124, 125, 126, 127, 128, 129, 130, 131, 132, 133, 134, 135, 136, 137, 138, 139, 140, 141, 142, 143, 144, 145, 146, 147, 148, 149, 150, 151, 152, 153, 154, 155, 156, 157, 158, 159, 160, 161, 162, 163, 164, 165, 166, 167, 168, 169, 170, 171, 172, 173, 174, 175, 176, 177, 178, 179, 180, 181, 182, 183, 184, 185, 186, 187, 188, 189, 190, 191, 192, 193, 194, 195, 196, 197, 198, 199, 200, 201, 202, 203, 204, 205, 206, 207, 208, 209, 210, 211, 212, 213, 214, 215, 216, 217, 218, 219, 220, 221, 222, 223, 224, 225, 226, 227, 228, 229, 230, 231, 232, 233, 234, 235, 236, 237, 238, 239, 240, 241, 242, 243, 244, 245, 246, 247, 248, 249, 250, 251, 252, 253, 254, 255, 256],
      "LargestImagePixelValue": [2785, 2691, 2724, 2728, 2709, 2665, 2685, 2708, 2659, 2717, 2685, 2746, 2681, 2740, 2684, 2669, 2713, 2960, 2676, 2658, 2678, 2697, 2708, 2995, 2656, 2682, 2686, 2760, 2731, 2722, 2703, 2683, 2718, 2707, 2961, 2819, 2733, 2770, 2707, 2977, 2737, 2709, 2746, 2708, 2718, 2945, 2769, 2712, 2718, 2858, 2724, 3098, 2742, 2955, 2748, 2772, 2872, 2749, 2719, 2703, 2709, 2999, 2864, 2705, 2723, 2653, 2690, 2693, 2666, 2706, 2661, 2652, 2667, 2679, 2645, 2706, 2691, 2753, 2656, 2704, 2694, 2694, 2695, 2723, 2700, 2689, 2722, 2717, 2737, 2711, 2744, 2713, 2699, 2708, 2744, 2719, 2714, 2759, 2738, 2692, 2715, 3164, 2748, 2756, 2743, 2692, 2723, 2729, 2726, 2755, 2729, 2745, 2723, 2748, 2747, 2763, 2741, 2734, 2736, 2730, 2723, 2699, 2702, 2749, 2741, 2773, 2731, 2773, 2787, 2785, 2763, 2762, 2746, 2723, 2749, 2741, 2755, 2719, 2713, 2723, 2718, 2755, 2726, 2797, 2733, 2945, 2731, 2778, 2752, 2727, 2734, 2758, 2717, 2787, 2714, 3008, 2709, 2790, 2742, 2752, 2773, 2947, 2776, 2753, 2726, 2742, 2736, 2801, 2740, 2737, 2737, 2703, 2704, 2729, 2739, 2698, 2722, 2726, 2753, 2758, 2738, 2816, 2723, 2705, 2733, 2737, 2742, 2708, 2738, 2906, 2731, 2758, 2683, 2925, 2700, 2713, 2720, 2744, 2744, 2750, 2722, 2735, 2713, 2767, 2726, 2759, 2767, 3079, 2756, 2762, 2814, 2783, 2801, 2810, 2751, 2761, 2695, 2734, 2966, 2789, 2737, 2754, 2736, 2696, 2774, 2751, 2726, 2740, 2732, 2740, 2753, 2765, 2744, 2732, 2740, 2727, 2742, 2739, 2767, 2753, 2726, 2725, 2748, 2730, 2709, 2704, 2728, 2712, 2751, 2748, 2738, 2750, 2742, 2725, 2733, 2719],
      "WindowCenter": [761.0, 759.0, 759.0, 760.0, 760.0, 759.0, 759.0, 758.0, 757.0, 757.0, 756.0, 758.0, 758.0, 759.0, 758.0, 757.0, 757.0, 760.0, 757.0, 757.0, 756.0, 756.0, 757.0, 760.0, 757.0, 756.0, 756.0, 757.0, 757.0, 758.0, 758.0, 758.0, 758.0, 758.0, 761.0, 760.0, 759.0, 761.0, 758.0, 761.0, 759.0, 759.0, 759.0, 758.0, 757.0, 762.0, 760.0, 759.0, 758.0, 759.0, 757.0, 761.0, 756.0, 759.0, 756.0, 756.0, 756.0, 756.0, 755.0, 754.0, 754.0, 758.0, 757.0, 758.0, 759.0, 757.0, 758.0, 758.0, 757.0, 757.0, 757.0, 757.0, 757.0, 756.0, 756.0, 757.0, 757.0, 757.0, 758.0, 759.0, 758.0, 757.0, 757.0, 758.0, 757.0, 757.0, 757.0, 758.0, 758.0, 758.0, 758.0, 758.0, 758.0, 758.0, 758.0, 759.0, 758.0, 759.0, 757.0, 757.0, 756.0, 762.0, 758.0, 759.0, 758.0, 758.0, 757.0, 758.0, 758.0, 759.0, 758.0, 757.0, 756.0, 756.0, 756.0, 757.0, 757.0, 758.0, 759.0, 760.0, 759.0, 760.0, 759.0, 759.0, 757.0, 758.0, 757.0, 757.0, 756.0, 757.0, 757.0, 758.0, 758.0, 757.0, 758.0, 759.0, 759.0, 758.0, 757.0, 756.0, 756.0, 756.0, 757.0, 759.0, 758.0, 760.0, 756.0, 757.0, 756.0, 756.0, 756.0, 757.0, 757.0, 758.0, 757.0, 759.0, 755.0, 757.0, 755.0, 755.0, 755.0, 757.0, 755.0, 755.0, 754.0, 755.0, 755.0, 757.0, 756.0, 758.0, 758.0, 758.0, 758.0, 758.0, 760.0, 760.0, 759.0, 757.0, 757.0, 757.0, 755.0, 757.0, 755.0, 754.0, 755.0, 756.0, 756.0, 756.0, 755.0, 757.0, 756.0, 757.0, 757.0, 760.0, 757.0, 756.0, 755.0, 757.0, 757.0, 757.0, 757.0, 758.0, 758.0, 759.0, 757.0, 757.0, 757.0, 760.0, 757.0, 757.0, 758.0, 757.0, 756.0, 757.0, 757.0, 759.0, 758.0, 758.0, 760.0, 758.0, 757.0, 758.0, 757.0, 755.0, 755.0, 755.0, 754.0, 755.0, 755.0, 756.0, 757.0, 757.0, 757.0, 758.0, 757.0, 757.0, 756.0, 757.0, 756.0, 757.0, 755.0, 755.0, 756.0, 756.0, 757.0, 758.0, 757.0, 756.0, 756.0, 755.0, 756.0, 756.0, 756.0, 756.0, 756.0, 755.0],
      "WindowWidth": [1615.0, 1609.0, 1610.0, 1612.0, 1612.0, 1610.0, 1609.0, 1608.0, 1604.0, 1605.0, 1603.0, 1608.0, 1607.0, 1610.0, 1607.0, 1607.0, 1604.0, 1614.0, 1606.0, 1604.0, 1603.0, 1604.0, 1605.0, 1612.0, 1605.0, 1604.0, 1602.0, 1606.0, 1606.0, 1607.0, 1607.0, 1607.0, 1609.0, 1607.0, 1614.0, 1613.0, 1610.0, 1615.0, 1607.0, 1616.0, 1609.0, 1610.0, 1609.0, 1608.0, 1606.0, 1616.0, 1611.0, 1610.0, 1608.0, 1610.0, 1604.0, 1614.0, 1604.0, 1609.0, 1602.0, 1601.0, 1603.0, 1602.0, 1599.0, 1599.0, 1598.0, 1606.0, 1605.0, 1608.0, 1609.0, 1606.0, 1607.0, 1607.0, 1604.0, 1604.0, 1604.0, 1605.0, 1605.0, 1604.0, 1602.0, 1606.0, 1606.0, 1606.0, 1608.0, 1610.0, 1609.0, 1605.0, 1606.0, 1608.0, 1607.0, 1607.0, 1606.0, 1608.0, 1608.0, 1608.0, 1608.0, 1607.0, 1607.0, 1608.0, 1609.0, 1610.0, 1607.0, 1610.0, 1605.0, 1605.0, 1604.0, 1617.0, 1608.0, 1609.0, 1607.0, 1607.0, 1606.0, 1607.0, 1607.0, 1611.0, 1607.0, 1606.0, 1603.0, 1604.0, 1603.0, 1604.0, 1605.0, 1607.0, 1610.0, 1611.0, 1612.0, 1612.0, 1611.0, 1610.0, 1606.0, 1608.0, 1605.0, 1606.0, 1603.0, 1606.0, 1606.0, 1607.0, 1607.0, 1606.0, 1607.0, 1610.0, 1609.0, 1607.0, 1605.0, 1604.0, 1602.0, 1604.0, 1604.0, 1610.0, 1607.0, 1613.0, 1604.0, 1606.0, 1602.0, 1602.0, 1602.0, 1605.0, 1604.0, 1608.0, 1604.0, 1610.0, 1601.0, 1605.0, 1600.0, 1602.0, 1599.0, 1605.0, 1601.0, 1601.0, 1597.0, 1600.0, 1599.0, 1605.0, 1603.0, 1608.0, 1609.0, 1608.0, 1608.0, 1610.0, 1612.0, 1613.0, 1610.0, 1606.0, 1606.0, 1606.0, 1601.0, 1604.0, 1600.0, 1598.0, 1600.0, 1603.0, 1603.0, 1603.0, 1601.0, 1605.0, 1602.0, 1605.0, 1605.0, 1612.0, 1605.0, 1603.0, 1601.0, 1604.0, 1605.0, 1606.0, 1606.0, 1606.0, 1607.0, 1609.0, 1606.0, 1606.0, 1604.0, 1612.0, 1605.0, 1606.0, 1608.0, 1605.0, 1604.0, 1606.0, 1605.0, 1610.0, 1608.0, 1607.0, 1611.0, 1608.0, 1606.0, 1607.0, 1606.0, 1601.0, 1599.0, 1601.0, 1599.0, 1601.0, 1600.0, 1602.0, 1605.0, 1606.0, 1606.0, 1608.0, 1606.0, 1606.0, 1604.0, 1605.0, 1604.0, 1604.0, 1601.0, 1602.0, 1603.0, 1602.0, 1605.0, 1607.0, 1606.0, 1604.0, 1602.0, 1600.0, 1602.0, 1603.0, 1603.0, 1602.0, 1603.0, 1601.0]
    },
    "slices": {}
  }
}