{
  "AcquisitionMatrixPE": 100,
  "AcquisitionNumber": 1,
  "AcquisitionTime": "09:20:44.097500",
  "BandwidthPerPixelPhaseEncode": 18.519,
  "BaseResolution": 100,
  "BodyPartExamined": "BRAIN",
  "ConsistencyInfo": "N4_VE11C_LATEST_20160120",
  "ConversionSoftware": "dcm2niix",
  "ConversionSoftwareVersion": "v1.0.20180622 GCC4.9.2",
  "DerivedVendorReportedEchoSpacing": 0.000539986,
  "DeviceSerialNumber": "166078",
  "DwellTime": 2.1e-06,
  "EchoTime": 0.034,
  "EchoTrainLength": 100,
  "EffectiveEchoSpacing": 0.000539986,
  "FlipAngle": 90,
  "ImageOrientationPatientDICOM": [1, 0, 0, 0, 0.977416, -0.211325],
  "ImageType": [
    "ORIGINAL",
    "PRIMARY",
    "M",
    "ND",
    "MOSAIC"
],
  "InPlanePhaseEncodingDirectionDICOM": "COL",
  "InstitutionAddress": "Street_StreetNo_Bei_Jing_District_CN_ZIP",
  "InstitutionName": "BeiJing_Normal_University",
  "InstitutionalDepartmentName": "Department",
  "MRAcquisitionType": "2D",
  "MagneticFieldStrength": 3,
  "Manufacturer": "Siemens",
  "ManufacturersModelName": "Prisma",
  "Modality": "MR",
  "MultibandAccelerationFactor": 3,
  "PartialFourier": 1,
  "PatientPosition": "HFS",
  "PercentPhaseFOV": 100,
  "PhaseEncodingDirection": "j-",
  "PhaseEncodingSteps": 100,
  "PhaseResolution": 1,
  "PixelBandwidth": 2380,
  "ProcedureStepDescription": "BNU_P2018_64CH_Zhen.ZongLei",
  "ProtocolName": "bold_100x100_s3_2x2x2_static_256",
  "PulseSequenceDetails": "%SiemensSeq%_ep2d_bold",
  "ReceiveCoilActiveElements": "HC1-7;NC1",
  "ReceiveCoilName": "HeadNeck_64",
  "ReconMatrixPE": 100,
  "RepetitionTime": 2,
  "SAR": 0.0633688,
  "ScanOptions": "FS",
  "ScanningSequence": "EP",
  "SequenceName": "_epfid2d1_100",
  "SequenceVariant": "SK",
  "SeriesDescription": "bold_100x100_s3_2x2x2_static_256",
  "SeriesNumber": 5,
  "ShimSetting": [-5458, -11512, -1227, 385, 18, -280, -175, 73],
  "SliceThickness": 2,
  "SliceTiming": [1.485, 0, 0.99, 0.0825, 1.0725, 0.165, 1.155, 0.2475, 1.2375, 0.33, 1.32, 0.4125, 1.4025, 0.5775, 1.5675, 0.66, 1.65, 0.7425, 1.7325, 0.825, 1.815, 0.9075, 1.8975, 0.495, 1.485, 0, 0.99, 0.0825, 1.0725, 0.165, 1.155, 0.2475, 1.2375, 0.33, 1.32, 0.4125, 1.4025, 0.5775, 1.5675, 0.66, 1.65, 0.7425, 1.7325, 0.825, 1.815, 0.9075, 1.8975, 0.495, 1.485, 0, 0.99, 0.0825, 1.0725, 0.165, 1.155, 0.2475, 1.2375, 0.33, 1.32, 0.4125, 1.4025, 0.5775, 1.5675, 0.66, 1.65, 0.7425, 1.7325, 0.825, 1.815, 0.9075, 1.8975, 0.495],
  "SoftwareVersions": "syngo_MR_E11",
  "SpacingBetweenSlices": 2,
  "StationName": "AWP166078",
  "TaskName": "naturalvision",
  "TotalReadoutTime": 0.0534586,
  "TxRefAmp": 222.274,
  "dcmmeta_affine": [
    [-2.0, 0.0, 0.0, 100.0],
    [0.0, 1.954831838607788, -0.4226495623588562, -76.24516296386719],
    [0.0, 0.4226495623588562, 1.954831838607788, -81.97076416015625],
    [0.0, 0.0, 0.0, 1.0]
],
  "dcmmeta_reorient_transform": [
    [0.0, -1.0, 0.0, 99.0],
    [1.0, 0.0, 0.0, 0.0],
    [0.0, 0.0, 1.0, 0.0],
    [0.0, 0.0, 0.0, 1.0]
],
  "dcmmeta_shape": [100, 100, 72, 256],
  "dcmmeta_slice_dim": 2,
  "dcmmeta_version": 0.6,
  "global": {
    "const": {
      "AcquisitionMatrix": [100, 0, 0, 100],
      "AngioFlag": "N",
      "BitsAllocated": 16,
      "BitsStored": 12,
      "BodyPartExamined": "BRAIN",
      "Columns": 900,
      "EchoNumbers": 1,
      "EchoTime": 34.0,
      "EchoTrainLength": 100,
      "FlipAngle": 90.0,
      "HighBit": 11,
      "ImageOrientationPatient": [1.0, 0.0, 0.0, 0.0, 0.97741589648343, -0.2113247862923],
      "ImagePositionPatient": [-900.0, -899.21589847937, 128.93137092601],
      "ImageType": [
        "ORIGINAL",
        "PRIMARY",
        "M",
        "ND",
        "MOSAIC"
],
      "ImagedNucleus": "1H",
      "ImagingFrequency": 123.257705,
      "InPlanePhaseEncodingDirection": "COL",
      "MRAcquisitionType": "2D",
      "MagneticFieldStrength": 3.0,
      "Manufacturer": "SIEMENS",
      "ManufacturerModelName": "Prisma",
      "Modality": "MR",
      "NumberOfAverages": 1.0,
      "NumberOfPhaseEncodingSteps": 100,
      "PercentPhaseFieldOfView": 100.0,
      "PercentSampling": 100.0,
      "PerformedProcedureStepStartTime": "085013.174000",
      "PhotometricInterpretation": "MONOCHROME2",
      "PixelBandwidth": 2380.0,
      "PixelRepresentation": 0,
      "PixelSpacing": [2.0, 2.0],
      "ProtocolName": "bold_100x100_s3_2x2x2_static_256",
      "RepetitionTime": 2000.0,
      "Rows": 900,
      "SAR": 0.06336875095733,
      "SamplesPerPixel": 1,
      "ScanOptions": "FS",
      "ScanningSequence": "EP",
      "SequenceName": "*epfid2d1_100",
      "SequenceVariant": "SK",
      "SeriesDescription": "bold_100x100_s3_2x2x2_static_256",
      "SeriesNumber": 5,
      "SeriesTime": "092046.505000",
      "SliceLocation": -64.007036078309,
      "SliceThickness": 2.0,
      "SmallestImagePixelValue": 0,
      "SoftwareVersions": "syngo MR E11",
      "SpacingBetweenSlices": 1.9999999942808,
      "SpecificCharacterSet": "ISO_IR 100",
      "StudyID": "1",
      "StudyTime": "085013.106000",
      "TransmitCoilName": "Body",
      "VariableFlipAngleFlag": "N",
      "WindowCenterWidthExplanation": "Algo1",
      "dBdt": 0.0},
    "slices": {}
  },
  "time": {
    "samples": {
      "AcquisitionNumber": [1, 2, 3, 4, 5, 6, 7, 8, 9, 10, 11, 12, 13, 14, 15, 16, 17, 18, 19, 20, 21, 22, 23, 24, 25, 26, 27, 28, 29, 30, 31, 32, 33, 34, 35, 36, 37, 38, 39, 40, 41, 42, 43, 44, 45, 46, 47, 48, 49, 50, 51, 52, 53, 54, 55, 56, 57, 58, 59, 60, 61, 62, 63, 64, 65, 66, 67, 68, 69, 70, 71, 72, 73, 74, 75, 76, 77, 78, 79, 80, 81, 82, 83, 84, 85, 86, 87, 88, 89, 90, 91, 92, 93, 94, 95, 96, 97, 98, 99, 100, 101, 102, 103, 104, 105, 106, 107, 108, 109, 110, 111, 112, 113, 114, 115, 116, 117, 118, 119, 120, 121, 122, 123, 124, 125, 126, 127, 128, 129, 130, 131, 132, 133, 134, 135, 136, 137, 138, 139, 140, 141, 142, 143, 144, 145, 146, 147, 148, 149, 150, 151, 152, 153, 154, 155, 156, 157, 158, 159, 160, 161, 162, 163, 164, 165, 166, 167, 168, 169, 170, 171, 172, 173, 174, 175, 176, 177, 178, 179, 180, 181, 182, 183, 184, 185, 186, 187, 188, 189, 190, 191, 192, 193, 194, 195, 196, 197, 198, 199, 200, 201, 202, 203, 204, 205, 206, 207, 208, 209, 210, 211, 212, 213, 214, 215, 216, 217, 218, 219, 220, 221, 222, 223, 224, 225, 226, 227, 228, 229, 230, 231, 232, 233, 234, 235, 236, 237, 238, 239, 240, 241, 242, 243, 244, 245, 246, 247, 248, 249, 250, 251, 252, 253, 254, 255, 256],
      "AcquisitionTime": ["092044.097500", "092046.097500", "092048.097500", "092050.097500", "092052.097500", "092054.097500", "092056.097500", "092058.097500", "092100.097500", "092102.097500", "092104.097500", "092106.097500", "092108.097500", "092110.097500", "092112.097500", "092114.097500", "092116.097500", "092118.097500", "092120.097500", "092122.097500", "092124.097500", "092126.097500", "092128.097500", "092130.097500", "092132.097500", "092134.097500", "092136.097500", "092138.097500", "092140.097500", "092142.097500", "092144.097500", "092146.097500", "092148.097500", "092150.097500", "092152.097500", "092154.097500", "092156.097500", "092158.097500", "092200.097500", "092202.097500", "092204.097500", "092206.097500", "092208.097500", "092210.097500", "092212.097500", "092214.097500", "092216.097500", "092218.097500", "092220.097500", "092222.097500", "092224.097500", "092226.097500", "092228.097500", "092230.097500", "092232.097500", "092234.097500", "092236.097500", "092238.097500", "092240.097500", "092242.097500", "092244.097500", "092246.097500", "092248.097500", "092250.097500", "092252.097500", "092254.097500", "092256.097500", "092258.097500", "092300.097500", "092302.097500", "092304.097500", "092306.097500", "092308.097500", "092310.097500", "092312.097500", "092314.097500", "092316.097500", "092318.097500", "092320.097500", "092322.097500", "092324.097500", "092326.097500", "092328.097500", "092330.097500", "092332.097500", "092334.097500", "092336.097500", "092338.097500", "092340.097500", "092342.097500", "092344.097500", "092346.097500", "092348.097500", "092350.097500", "092352.097500", "092354.097500", "092356.097500", "092358.097500", "092400.097500", "092402.097500", "092404.097500", "092406.097500", "092408.097500", "092410.097500", "092412.097500", "092414.097500", "092416.097500", "092418.097500", "092420.097500", "092422.097500", "092424.097500", "092426.097500", "092428.097500", "092430.097500", "092432.097500", "092434.097500", "092436.097500", "092438.097500", "092440.097500", "092442.097500", "092444.097500", "092446.097500", "092448.097500", "092450.097500", "092452.097500", "092454.097500", "092456.097500", "092458.097500", "092500.097500", "092502.097500", "092504.097500", "092506.097500", "092508.097500", "092510.097500", "092512.097500", "092514.097500", "092516.097500", "092518.097500", "092520.097500", "092522.097500", "092524.097500", "092526.097500", "092528.097500", "092530.097500", "092532.097500", "092534.097500", "092536.097500", "092538.097500", "092540.097500", "092542.097500", "092544.097500", "092546.097500", "092548.097500", "092550.097500", "092552.097500", "092554.097500", "092556.097500", "092558.097500", "092600.097500", "092602.097500", "092604.097500", "092606.097500", "092608.097500", "092610.097500", "092612.097500", "092614.097500", "092616.097500", "092618.097500", "092620.097500", "092622.097500", "092624.097500", "092626.097500", "092628.097500", "092630.097500", "092632.097500", "092634.097500", "092636.097500", "092638.097500", "092640.097500", "092642.097500", "092644.097500", "092646.097500", "092648.097500", "092650.097500", "092652.097500", "092654.097500", "092656.097500", "092658.097500", "092700.097500", "092702.097500", "092704.097500", "092706.097500", "092708.097500", "092710.097500", "092712.097500", "092714.097500", "092716.097500", "092718.097500", "092720.097500", "092722.097500", "092724.097500", "092726.097500", "092728.097500", "092730.097500", "092732.097500", "092734.097500", "092736.097500", "092738.097500", "092740.097500", "092742.097500", "092744.097500", "092746.097500", "092748.097500", "092750.097500", "092752.097500", "092754.097500", "092756.097500", "092758.097500", "092800.097500", "092802.097500", "092804.097500", "092806.097500", "092808.097500", "092810.097500", "092812.097500", "092814.097500", "092816.097500", "092818.097500", "092820.097500", "092822.097500", "092824.097500", "092826.097500", "092828.097500", "092830.097500", "092832.097500", "092834.097500", "092836.097500", "092838.097500", "092840.097500", "092842.097500", "092844.097500", "092846.097500", "092848.097500", "092850.097500", "092852.097500", "092854.097500", "092856.097500", "092858.097500", "092900.097500", "092902.097500", "092904.097500", "092906.097500", "092908.097500", "092910.097500", "092912.097500", "092914.097500"],
      "ContentTime": ["092046.509000", "092048.006000", "092050.005000", "092052.006000", "092054.005000", "092056.004000", "092058.004000", "092100.004000", "092102.005000", "092104.004000", "092106.005000", "092108.006000", "092110.006000", "092112.006000", "092114.004000", "092116.004000", "092118.005000", "092120.005000", "092122.006000", "092124.005000", "092126.006000", "092128.005000", "092130.005000", "092132.004000", "092134.005000", "092136.004000", "092138.004000", "092140.006000", "092142.006000", "092144.005000", "092146.005000", "092148.004000", "092150.005000", "092152.005000", "092154.004000", "092156.005000", "092158.006000", "092200.006000", "092202.005000", "092204.006000", "092206.004000", "092208.005000", "092210.005000", "092212.005000", "092214.004000", "092216.005000", "092218.005000", "092220.005000", "092222.005000", "092224.005000", "092226.004000", "092228.005000", "092230.005000", "092232.006000", "092234.006000", "092236.005000", "092238.006000", "092240.005000", "092242.004000", "092244.005000", "092246.004000", "092248.004000", "092250.005000", "092252.005000", "092254.005000", "092256.006000", "092258.004000", "092300.005000", "092302.005000", "092304.004000", "092306.005000", "092308.006000", "092310.005000", "092312.005000", "092314.005000", "092316.005000", "092318.004000", "092320.004000", "092322.004000", "092324.004000", "092326.005000", "092328.006000", "092330.006000", "092332.005000", "092334.005000", "092336.005000", "092338.005000", "092340.005000", "092342.005000", "092344.006000", "092346.005000", "092348.005000", "092350.005000", "092352.005000", "092354.005000", "092356.005000", "092358.005000", "092400.006000", "092402.006000", "092404.005000", "092406.005000", "092408.004000", "092410.005000", "092412.005000", "092414.004000", "092416.005000", "092418.006000", "092420.005000", "092422.005000", "092424.006000", "092426.005000", "092428.004000", "092430.005000", "092432.005000", "092434.004000", "092436.006000", "092438.006000", "092440.006000", "092442.006000", "092444.004000", "092446.005000", "092448.005000", "092450.004000", "092452.006000", "092454.006000", "092456.006000", "092458.006000", "092500.005000", "092502.004000", "092504.005000", "092506.004000", "092508.004000", "092510.006000", "092512.006000", "092514.005000", "092516.006000", "092518.004000", "092520.005000", "092522.004000", "092524.005000", "092526.005000", "092528.005000", "092530.005000", "092532.005000", "092534.006000", "092536.005000", "092538.005000", "092540.004000", "092542.005000", "092544.005000", "092546.005000", "092548.005000", "092550.006000", "092552.005000", "092554.004000", "092556.005000", "092558.004000", "092600.005000", "092602.005000", "092604.005000", "092606.006000", "092608.005000", "092610.006000", "092612.004000", "092614.005000", "092616.021000", "092618.005000", "092620.005000", "092622.006000", "092624.005000", "092626.006000", "092628.005000", "092630.004000", "092632.005000", "092634.005000", "092636.005000", "092638.006000", "092640.006000", "092642.006000", "092644.006000", "092646.004000", "092648.005000", "092650.005000", "092652.005000", "092654.005000", "092656.005000", "092658.006000", "092700.006000", "092702.006000", "092704.005000", "092706.005000", "092708.004000", "092710.005000", "092712.006000", "092714.006000", "092716.006000", "092718.005000", "092720.006000", "092722.005000", "092724.005000", "092726.005000", "092728.005000", "092730.006000", "092732.005000", "092734.006000", "092736.005000", "092738.004000", "092740.004000", "092742.005000", "092744.005000", "092746.005000", "092748.005000", "092750.006000", "092752.006000", "092754.006000", "092756.005000", "092758.004000", "092800.005000", "092802.004000", "092804.006000", "092806.006000", "092808.006000", "092810.006000", "092812.006000", "092814.005000", "092816.005000", "092818.004000", "092820.005000", "092822.005000", "092824.006000", "092826.006000", "092828.006000", "092830.005000", "092832.005000", "092834.004000", "092836.005000", "092838.004000", "092840.006000", "092842.006000", "092844.006000", "092846.005000", "092848.004000", "092850.004000", "092852.004000", "092854.004000", "092856.005000", "092858.005000", "092900.006000", "092902.006000", "092904.006000", "092906.005000", "092908.004000", "092910.005000", "092912.004000", "092914.006000", "092915.653000"],
      "InstanceCreationTime": ["092046.509000", "092048.006000", "092050.005000", "092052.006000", "092054.005000", "092056.004000", "092058.004000", "092100.004000", "092102.005000", "092104.004000", "092106.005000", "092108.006000", "092110.006000", "092112.006000", "092114.004000", "092116.004000", "092118.005000", "092120.005000", "092122.006000", "092124.005000", "092126.006000", "092128.005000", "092130.005000", "092132.004000", "092134.005000", "092136.004000", "092138.004000", "092140.006000", "092142.006000", "092144.005000", "092146.005000", "092148.004000", "092150.005000", "092152.005000", "092154.004000", "092156.005000", "092158.006000", "092200.006000", "092202.005000", "092204.006000", "092206.004000", "092208.005000", "092210.005000", "092212.005000", "092214.004000", "092216.005000", "092218.005000", "092220.005000", "092222.005000", "092224.005000", "092226.004000", "092228.005000", "092230.005000", "092232.006000", "092234.006000", "092236.005000", "092238.006000", "092240.005000", "092242.004000", "092244.005000", "092246.004000", "092248.004000", "092250.005000", "092252.005000", "092254.005000", "092256.006000", "092258.004000", "092300.005000", "092302.005000", "092304.004000", "092306.005000", "092308.006000", "092310.005000", "092312.005000", "092314.005000", "092316.005000", "092318.004000", "092320.004000", "092322.004000", "092324.004000", "092326.005000", "092328.006000", "092330.006000", "092332.005000", "092334.005000", "092336.005000", "092338.005000", "092340.005000", "092342.005000", "092344.006000", "092346.005000", "092348.005000", "092350.005000", "092352.005000", "092354.005000", "092356.005000", "092358.005000", "092400.006000", "092402.006000", "092404.005000", "092406.005000", "092408.004000", "092410.005000", "092412.005000", "092414.004000", "092416.005000", "092418.006000", "092420.005000", "092422.005000", "092424.006000", "092426.005000", "092428.004000", "092430.005000", "092432.005000", "092434.004000", "092436.006000", "092438.006000", "092440.006000", "092442.006000", "092444.004000", "092446.005000", "092448.005000", "092450.004000", "092452.006000", "092454.006000", "092456.006000", "092458.006000", "092500.005000", "092502.004000", "092504.005000", "092506.004000", "092508.004000", "092510.006000", "092512.006000", "092514.005000", "092516.006000", "092518.004000", "092520.005000", "092522.004000", "092524.005000", "092526.005000", "092528.005000", "092530.005000", "092532.005000", "092534.006000", "092536.005000", "092538.005000", "092540.004000", "092542.005000", "092544.005000", "092546.005000", "092548.005000", "092550.006000", "092552.005000", "092554.004000", "092556.005000", "092558.004000", "092600.005000", "092602.005000", "092604.005000", "092606.006000", "092608.005000", "092610.006000", "092612.004000", "092614.005000", "092616.021000", "092618.005000", "092620.005000", "092622.006000", "092624.005000", "092626.006000", "092628.005000", "092630.004000", "092632.005000", "092634.005000", "092636.005000", "092638.006000", "092640.006000", "092642.006000", "092644.006000", "092646.004000", "092648.005000", "092650.005000", "092652.005000", "092654.005000", "092656.005000", "092658.006000", "092700.006000", "092702.006000", "092704.005000", "092706.005000", "092708.004000", "092710.005000", "092712.006000", "092714.006000", "092716.006000", "092718.005000", "092720.006000", "092722.005000", "092724.005000", "092726.005000", "092728.005000", "092730.006000", "092732.005000", "092734.006000", "092736.005000", "092738.004000", "092740.004000", "092742.005000", "092744.005000", "092746.005000", "092748.005000", "092750.006000", "092752.006000", "092754.006000", "092756.005000", "092758.004000", "092800.005000", "092802.004000", "092804.006000", "092806.006000", "092808.006000", "092810.006000", "092812.006000", "092814.005000", "092816.005000", "092818.004000", "092820.005000", "092822.005000", "092824.006000", "092826.006000", "092828.006000", "092830.005000", "092832.005000", "092834.004000", "092836.005000", "092838.004000", "092840.006000", "092842.006000", "092844.006000", "092846.005000", "092848.004000", "092850.004000", "092852.004000", "092854.004000", "092856.005000", "092858.005000", "092900.006000", "092902.006000", "092904.006000", "092906.005000", "092908.004000", "092910.005000", "092912.004000", "092914.006000", "092915.653000"],
      "InstanceNumber": [1, 2, 3, 4, 5, 6, 7, 8, 9, 10, 11, 12, 13, 14, 15, 16, 17, 18, 19, 20, 21, 22, 23, 24, 25, 26, 27, 28, 29, 30, 31, 32, 33, 34, 35, 36, 37, 38, 39, 40, 41, 42, 43, 44, 45, 46, 47, 48, 49, 50, 51, 52, 53, 54, 55, 56, 57, 58, 59, 60, 61, 62, 63, 64, 65, 66, 67, 68, 69, 70, 71, 72, 73, 74, 75, 76, 77, 78, 79, 80, 81, 82, 83, 84, 85, 86, 87, 88, 89, 90, 91, 92, 93, 94, 95, 96, 97, 98, 99, 100, 101, 102, 103, 104, 105, 106, 107, 108, 109, 110, 111, 112, 113, 114, 115, 116, 117, 118, 119, 120, 121, 122, 123, 124, 125, 126, 127, 128, 129, 130, 131, 132, 133, 134, 135, 136, 137, 138, 139, 140, 141, 142, 143, 144, 145, 146, 147, 148, 149, 150, 151, 152, 153, 154, 155, 156, 157, 158, 159, 160, 161, 162, 163, 164, 165, 166, 167, 168, 169, 170, 171, 172, 173, 174, 175, 176, 177, 178, 179, 180, 181, 182, 183, 184, 185, 186, 187, 188, 189, 190, 191, 192, 193, 194, 195, 196, 197, 198, 199, 200, 201, 202, 203, 204, 205, 206, 207, 208, 209, 210, 211, 212, 213, 214, 215, 216, 217, 218, 219, 220, 221, 222, 223, 224, 225, 226, 227, 228, 229, 230, 231, 232, 233, 234, 235, 236, 237, 238, 239, 240, 241, 242, 243, 244, 245, 246, 247, 248, 249, 250, 251, 252, 253, 254, 255, 256],
      "LargestImagePixelValue": [3536, 3429, 3438, 3481, 3427, 3465, 3425, 3429, 3445, 3422, 3463, 3379, 3471, 3440, 3487, 3432, 3432, 3449, 3461, 3403, 3418, 3428, 3447, 3431, 3431, 3440, 3439, 3445, 3454, 3468, 3441, 3464, 3451, 3502, 3504, 3537, 3516, 3553, 3517, 3559, 3551, 3560, 3541, 3570, 3515, 3578, 3558, 3566, 3529, 3551, 3548, 3555, 3552, 3528, 3531, 3559, 3568, 3479, 3605, 3549, 3609, 3634, 3581, 3609, 3570, 3564, 3578, 3557, 3594, 3595, 3616, 3570, 3613, 3568, 3605, 3588, 3589, 3624, 3634, 3609, 3637, 3637, 3648, 3627, 3611, 3657, 3607, 3672, 3672, 3646, 3622, 3642, 3614, 3643, 3642, 3658, 3653, 3645, 3664, 3659, 3665, 3663, 3676, 3648, 3651, 3692, 3677, 3698, 3675, 3662, 3685, 3670, 3678, 3693, 3688, 3687, 3677, 3684, 3684, 3692, 3698, 3689, 3691, 3680, 3673, 3678, 3651, 3714, 3682, 3659, 3559, 3548, 3515, 3545, 3563, 3592, 3563, 3556, 3519, 3515, 3525, 3539, 3545, 3557, 3572, 3553, 3600, 3664, 3618, 3666, 3615, 3642, 3595, 3576, 3647, 3644, 3642, 3638, 3639, 3623, 3603, 3650, 3631, 3605, 3616, 3621, 3596, 3524, 3473, 3419, 3487, 3464, 3562, 3511, 3473, 3505, 3501, 3580, 3543, 3528, 3545, 3539, 3600, 3565, 3533, 3583, 3592, 3604, 3601, 3621, 3590, 3560, 3599, 3597, 3558, 3516, 3470, 3463, 3503, 3566, 3528, 3568, 3597, 3602, 3564, 3547, 3563, 3571, 3582, 3574, 3582, 3601, 3587, 3581, 3605, 3610, 3603, 3573, 3568, 3596, 3608, 3584, 3573, 3593, 3601, 3598, 3618, 3612, 3618, 3560, 3607, 3639, 3634, 3631, 3632, 3635, 3628, 3639, 3663, 3669, 3633, 3644, 3631, 3639, 3632, 3618, 3628, 3651, 3619, 3610, 3591, 3663, 3620, 3616, 3641, 3602],
      "WindowCenter": [796.0, 794.0, 795.0, 796.0, 795.0, 795.0, 795.0, 795.0, 795.0, 795.0, 796.0, 795.0, 795.0, 794.0, 794.0, 793.0, 793.0, 793.0, 793.0, 793.0, 792.0, 792.0, 793.0, 794.0, 794.0, 794.0, 794.0, 793.0, 793.0, 794.0, 795.0, 796.0, 796.0, 797.0, 797.0, 798.0, 798.0, 799.0, 798.0, 799.0, 799.0, 798.0, 798.0, 796.0, 795.0, 795.0, 795.0, 794.0, 794.0, 793.0, 795.0, 794.0, 794.0, 795.0, 796.0, 797.0, 796.0, 796.0, 797.0, 797.0, 797.0, 797.0, 795.0, 794.0, 791.0, 790.0, 791.0, 791.0, 793.0, 793.0, 795.0, 795.0, 795.0, 794.0, 796.0, 795.0, 797.0, 797.0, 798.0, 797.0, 797.0, 797.0, 797.0, 797.0, 798.0, 797.0, 797.0, 797.0, 798.0, 798.0, 798.0, 797.0, 797.0, 796.0, 796.0, 796.0, 797.0, 797.0, 798.0, 798.0, 798.0, 797.0, 799.0, 799.0, 797.0, 798.0, 797.0, 797.0, 796.0, 796.0, 796.0, 797.0, 797.0, 797.0, 797.0, 797.0, 797.0, 798.0, 798.0, 798.0, 798.0, 798.0, 797.0, 797.0, 798.0, 798.0, 799.0, 800.0, 799.0, 798.0, 798.0, 797.0, 795.0, 793.0, 791.0, 789.0, 787.0, 787.0, 789.0, 790.0, 790.0, 793.0, 794.0, 794.0, 794.0, 794.0, 796.0, 797.0, 798.0, 799.0, 799.0, 800.0, 799.0, 800.0, 801.0, 802.0, 801.0, 801.0, 799.0, 798.0, 797.0, 797.0, 796.0, 795.0, 795.0, 794.0, 795.0, 795.0, 796.0, 796.0, 794.0, 792.0, 789.0, 788.0, 788.0, 790.0, 791.0, 792.0, 794.0, 796.0, 796.0, 796.0, 797.0, 796.0, 797.0, 799.0, 799.0, 799.0, 798.0, 798.0, 797.0, 796.0, 797.0, 798.0, 797.0, 797.0, 796.0, 795.0, 794.0, 792.0, 791.0, 791.0, 790.0, 791.0, 791.0, 792.0, 792.0, 793.0, 793.0, 793.0, 794.0, 794.0, 795.0, 795.0, 797.0, 797.0, 797.0, 799.0, 800.0, 800.0, 800.0, 799.0, 798.0, 798.0, 797.0, 796.0, 796.0, 796.0, 796.0, 796.0, 796.0, 797.0, 798.0, 798.0, 798.0, 797.0, 796.0, 797.0, 798.0, 797.0, 796.0, 796.0, 796.0, 796.0, 797.0, 797.0, 798.0, 798.0, 796.0, 796.0, 796.0, 797.0, 798.0, 797.0, 798.0, 797.0],
      "WindowWidth": [1706.0, 1700.0, 1703.0, 1704.0, 1704.0, 1703.0, 1703.0, 1704.0, 1703.0, 1704.0, 1705.0, 1703.0, 1702.0, 1701.0, 1700.0, 1699.0, 1697.0, 1697.0, 1699.0, 1697.0, 1696.0, 1697.0, 1699.0, 1700.0, 1702.0, 1700.0, 1699.0, 1700.0, 1699.0, 1700.0, 1704.0, 1706.0, 1707.0, 1709.0, 1709.0, 1711.0, 1711.0, 1713.0, 1712.0, 1714.0, 1714.0, 1713.0, 1710.0, 1708.0, 1704.0, 1704.0, 1702.0, 1701.0, 1701.0, 1700.0, 1703.0, 1701.0, 1702.0, 1703.0, 1707.0, 1707.0, 1706.0, 1705.0, 1709.0, 1709.0, 1708.0, 1709.0, 1703.0, 1700.0, 1693.0, 1691.0, 1692.0, 1694.0, 1697.0, 1698.0, 1703.0, 1703.0, 1704.0, 1702.0, 1706.0, 1704.0, 1708.0, 1708.0, 1710.0, 1709.0, 1707.0, 1708.0, 1708.0, 1707.0, 1711.0, 1709.0, 1709.0, 1710.0, 1712.0, 1710.0, 1710.0, 1708.0, 1709.0, 1706.0, 1706.0, 1707.0, 1710.0, 1709.0, 1712.0, 1711.0, 1712.0, 1710.0, 1713.0, 1713.0, 1710.0, 1710.0, 1709.0, 1709.0, 1707.0, 1706.0, 1706.0, 1708.0, 1708.0, 1709.0, 1710.0, 1709.0, 1709.0, 1711.0, 1711.0, 1711.0, 1710.0, 1710.0, 1708.0, 1708.0, 1710.0, 1710.0, 1713.0, 1716.0, 1714.0, 1710.0, 1709.0, 1707.0, 1702.0, 1698.0, 1692.0, 1687.0, 1681.0, 1682.0, 1687.0, 1689.0, 1691.0, 1696.0, 1699.0, 1701.0, 1701.0, 1701.0, 1704.0, 1708.0, 1709.0, 1712.0, 1714.0, 1715.0, 1713.0, 1715.0, 1718.0, 1721.0, 1720.0, 1718.0, 1712.0, 1711.0, 1708.0, 1707.0, 1706.0, 1703.0, 1702.0, 1702.0, 1703.0, 1703.0, 1706.0, 1706.0, 1701.0, 1694.0, 1687.0, 1685.0, 1685.0, 1688.0, 1691.0, 1695.0, 1700.0, 1704.0, 1706.0, 1706.0, 1708.0, 1705.0, 1707.0, 1712.0, 1712.0, 1714.0, 1712.0, 1710.0, 1708.0, 1706.0, 1708.0, 1711.0, 1709.0, 1709.0, 1705.0, 1704.0, 1700.0, 1695.0, 1693.0, 1692.0, 1690.0, 1691.0, 1693.0, 1695.0, 1695.0, 1699.0, 1698.0, 1697.0, 1699.0, 1701.0, 1704.0, 1703.0, 1706.0, 1707.0, 1709.0, 1714.0, 1715.0, 1716.0, 1716.0, 1712.0, 1711.0, 1711.0, 1706.0, 1704.0, 1704.0, 1705.0, 1704.0, 1706.0, 1706.0, 1709.0, 1711.0, 1711.0, 1710.0, 1707.0, 1706.0, 1709.0, 1710.0, 1708.0, 1705.0, 1704.0, 1705.0, 1705.0, 1708.0, 1709.0, 1711.0, 1709.0, 1706.0, 1705.0, 1705.0, 1709.0, 1710.0, 1709.0, 1709.0, 1708.0]
    },
    "slices": {}
  }
}