{
  "AcquisitionMatrixPE": 100,
  "AcquisitionNumber": 1,
  "AcquisitionTime": "15:07:54.805000",
  "BandwidthPerPixelPhaseEncode": 18.519,
  "BaseResolution": 100,
  "BodyPartExamined": "BRAIN",
  "ConsistencyInfo": "N4_VE11C_LATEST_20160120",
  "ConversionSoftware": "dcm2niix",
  "ConversionSoftwareVersion": "v1.0.20180622 GCC4.9.2",
  "DerivedVendorReportedEchoSpacing": 0.000539986,
  "DeviceSerialNumber": "166078",
  "DwellTime": 2.1e-06,
  "EchoTime": 0.034,
  "EchoTrainLength": 100,
  "EffectiveEchoSpacing": 0.000539986,
  "FlipAngle": 90,
  "ImageOrientationPatientDICOM": [0.999888, -0.0109462, 0.010219, 0.0104712, 0.998913, 0.0454298],
  "ImageType": [
    "ORIGINAL",
    "PRIMARY",
    "M",
    "ND",
    "MOSAIC"
],
  "InPlanePhaseEncodingDirectionDICOM": "COL",
  "InstitutionAddress": "Street_StreetNo_Bei_Jing_District_CN_ZIP",
  "InstitutionName": "BeiJing_Normal_University",
  "InstitutionalDepartmentName": "Department",
  "MRAcquisitionType": "2D",
  "MagneticFieldStrength": 3,
  "Manufacturer": "Siemens",
  "ManufacturersModelName": "Prisma",
  "Modality": "MR",
  "MultibandAccelerationFactor": 3,
  "PartialFourier": 1,
  "PatientPosition": "HFS",
  "PercentPhaseFOV": 100,
  "PhaseEncodingDirection": "j-",
  "PhaseEncodingSteps": 100,
  "PhaseResolution": 1,
  "PixelBandwidth": 2380,
  "ProcedureStepDescription": "BNU_P2018_64CH_Zhen.ZongLei",
  "ProtocolName": "bold_100x100_s3_2x2x2_static_256",
  "PulseSequenceDetails": "%SiemensSeq%_ep2d_bold",
  "ReceiveCoilActiveElements": "HC1-7;NC1",
  "ReceiveCoilName": "HeadNeck_64",
  "ReconMatrixPE": 100,
  "RepetitionTime": 2,
  "SAR": 0.071091,
  "ScanOptions": "FS",
  "ScanningSequence": "EP",
  "SequenceName": "_epfid2d1_100",
  "SequenceVariant": "SK",
  "SeriesDescription": "bold_100x100_s3_2x2x2_static_256",
  "SeriesNumber": 3,
  "ShimSetting": [-5459, -11492, -1340, 505, 5, -254, 1, 68],
  "SliceThickness": 2,
  "SliceTiming": [1.4825, 0, 0.9875, 0.0825, 1.07, 0.165, 1.1525, 0.2475, 1.235, 0.33, 1.3175, 0.4125, 1.4, 0.575, 1.565, 0.6575, 1.6475, 0.74, 1.73, 0.8225, 1.8125, 0.905, 1.895, 0.495, 1.4825, 0, 0.9875, 0.0825, 1.07, 0.165, 1.1525, 0.2475, 1.235, 0.33, 1.3175, 0.4125, 1.4, 0.575, 1.565, 0.6575, 1.6475, 0.74, 1.73, 0.8225, 1.8125, 0.905, 1.895, 0.495, 1.4825, 0, 0.9875, 0.0825, 1.07, 0.165, 1.1525, 0.2475, 1.235, 0.33, 1.3175, 0.4125, 1.4, 0.575, 1.565, 0.6575, 1.6475, 0.74, 1.73, 0.8225, 1.8125, 0.905, 1.895, 0.495],
  "SoftwareVersions": "syngo_MR_E11",
  "SpacingBetweenSlices": 2,
  "StationName": "AWP166078",
  "TaskName": "naturalvision",
  "TotalReadoutTime": 0.0534586,
  "TxRefAmp": 211.897,
  "dcmmeta_affine": [
    [-1.999775767326355, 0.020942488685250282, 0.021410301327705383, 97.06842041015625],
    [0.02189243584871292, 1.997825264930725, 0.09063538908958435, -87.27497863769531],
    [0.020437955856323242, -0.09085959196090698, 1.9978305101394653, -84.22418212890625],
    [0.0, 0.0, 0.0, 1.0]
],
  "dcmmeta_reorient_transform": [
    [0.0, -1.0, 0.0, 99.0],
    [1.0, 0.0, 0.0, 0.0],
    [0.0, 0.0, 1.0, 0.0],
    [0.0, 0.0, 0.0, 1.0]
],
  "dcmmeta_shape": [100, 100, 72, 256],
  "dcmmeta_slice_dim": 2,
  "dcmmeta_version": 0.6,
  "global": {
    "const": {
      "AcquisitionMatrix": [100, 0, 0, 100],
      "AngioFlag": "N",
      "BitsAllocated": 16,
      "BitsStored": 12,
      "BodyPartExamined": "BRAIN",
      "Columns": 900,
      "EchoNumbers": 1,
      "EchoTime": 34.0,
      "EchoTrainLength": 100,
      "FlipAngle": 90.0,
      "HighBit": 11,
      "ImageOrientationPatient": [0.99988787010732, -0.0109462182917, 0.01021897829354, 0.01047124398999, 0.99891265219936, 0.04542979556786],
      "ImagePositionPatient": [-907.42901583322, -900.88287187676, -137.73830016178],
      "ImageType": [
        "ORIGINAL",
        "PRIMARY",
        "M",
        "ND",
        "MOSAIC"
],
      "ImagedNucleus": "1H",
      "ImagingFrequency": 123.257787,
      "InPlanePhaseEncodingDirection": "COL",
      "MRAcquisitionType": "2D",
      "MagneticFieldStrength": 3.0,
      "Manufacturer": "SIEMENS",
      "ManufacturerModelName": "Prisma",
      "Modality": "MR",
      "NumberOfAverages": 1.0,
      "NumberOfPhaseEncodingSteps": 100,
      "PercentPhaseFieldOfView": 100.0,
      "PercentSampling": 100.0,
      "PerformedProcedureStepStartTime": "150445.485000",
      "PhotometricInterpretation": "MONOCHROME2",
      "PixelBandwidth": 2380.0,
      "PixelRepresentation": 0,
      "PixelSpacing": [2.0, 2.0],
      "ProtocolName": "bold_100x100_s3_2x2x2_static_256",
      "RepetitionTime": 2000.0,
      "Rows": 900,
      "SAR": 0.07109095885845,
      "SamplesPerPixel": 1,
      "ScanOptions": "FS",
      "ScanningSequence": "EP",
      "SequenceName": "*epfid2d1_100",
      "SequenceVariant": "SK",
      "SeriesDescription": "bold_100x100_s3_2x2x2_static_256",
      "SeriesNumber": 3,
      "SeriesTime": "150757.208000",
      "SliceLocation": -87.048789560308,
      "SliceThickness": 2.0,
      "SmallestImagePixelValue": 0,
      "SoftwareVersions": "syngo MR E11",
      "SpacingBetweenSlices": 1.9999999817312,
      "SpecificCharacterSet": "ISO_IR 100",
      "StudyID": "1",
      "StudyTime": "150445.397000",
      "TransmitCoilName": "Body",
      "VariableFlipAngleFlag": "N",
      "WindowCenterWidthExplanation": "Algo1",
      "dBdt": 0.0},
    "slices": {}
  },
  "time": {
    "samples": {
      "AcquisitionNumber": [1, 2, 3, 4, 5, 6, 7, 8, 9, 10, 11, 12, 13, 14, 15, 16, 17, 18, 19, 20, 21, 22, 23, 24, 25, 26, 27, 28, 29, 30, 31, 32, 33, 34, 35, 36, 37, 38, 39, 40, 41, 42, 43, 44, 45, 46, 47, 48, 49, 50, 51, 52, 53, 54, 55, 56, 57, 58, 59, 60, 61, 62, 63, 64, 65, 66, 67, 68, 69, 70, 71, 72, 73, 74, 75, 76, 77, 78, 79, 80, 81, 82, 83, 84, 85, 86, 87, 88, 89, 90, 91, 92, 93, 94, 95, 96, 97, 98, 99, 100, 101, 102, 103, 104, 105, 106, 107, 108, 109, 110, 111, 112, 113, 114, 115, 116, 117, 118, 119, 120, 121, 122, 123, 124, 125, 126, 127, 128, 129, 130, 131, 132, 133, 134, 135, 136, 137, 138, 139, 140, 141, 142, 143, 144, 145, 146, 147, 148, 149, 150, 151, 152, 153, 154, 155, 156, 157, 158, 159, 160, 161, 162, 163, 164, 165, 166, 167, 168, 169, 170, 171, 172, 173, 174, 175, 176, 177, 178, 179, 180, 181, 182, 183, 184, 185, 186, 187, 188, 189, 190, 191, 192, 193, 194, 195, 196, 197, 198, 199, 200, 201, 202, 203, 204, 205, 206, 207, 208, 209, 210, 211, 212, 213, 214, 215, 216, 217, 218, 219, 220, 221, 222, 223, 224, 225, 226, 227, 228, 229, 230, 231, 232, 233, 234, 235, 236, 237, 238, 239, 240, 241, 242, 243, 244, 245, 246, 247, 248, 249, 250, 251, 252, 253, 254, 255, 256],
      "AcquisitionTime": ["150754.805000", "150756.805000", "150758.805000", "150800.805000", "150802.805000", "150804.805000", "150806.805000", "150808.805000", "150810.805000", "150812.805000", "150814.805000", "150816.805000", "150818.805000", "150820.805000", "150822.805000", "150824.805000", "150826.805000", "150828.805000", "150830.805000", "150832.805000", "150834.805000", "150836.805000", "150838.805000", "150840.805000", "150842.805000", "150844.805000", "150846.805000", "150848.805000", "150850.805000", "150852.805000", "150854.805000", "150856.805000", "150858.805000", "150900.805000", "150902.805000", "150904.805000", "150906.805000", "150908.805000", "150910.805000", "150912.805000", "150914.805000", "150916.805000", "150918.805000", "150920.805000", "150922.805000", "150924.805000", "150926.805000", "150928.805000", "150930.805000", "150932.805000", "150934.805000", "150936.805000", "150938.805000", "150940.805000", "150942.805000", "150944.805000", "150946.805000", "150948.805000", "150950.805000", "150952.805000", "150954.805000", "150956.805000", "150958.805000", "151000.805000", "151002.805000", "151004.805000", "151006.805000", "151008.805000", "151010.805000", "151012.805000", "151014.805000", "151016.805000", "151018.805000", "151020.805000", "151022.805000", "151024.805000", "151026.805000", "151028.805000", "151030.805000", "151032.805000", "151034.805000", "151036.805000", "151038.805000", "151040.805000", "151042.805000", "151044.805000", "151046.805000", "151048.805000", "151050.805000", "151052.805000", "151054.805000", "151056.805000", "151058.805000", "151100.805000", "151102.805000", "151104.805000", "151106.805000", "151108.805000", "151110.805000", "151112.805000", "151114.805000", "151116.805000", "151118.805000", "151120.805000", "151122.805000", "151124.805000", "151126.805000", "151128.805000", "151130.805000", "151132.805000", "151134.805000", "151136.805000", "151138.805000", "151140.805000", "151142.805000", "151144.805000", "151146.805000", "151148.805000", "151150.805000", "151152.805000", "151154.805000", "151156.805000", "151158.805000", "151200.805000", "151202.805000", "151204.805000", "151206.805000", "151208.805000", "151210.805000", "151212.805000", "151214.805000", "151216.805000", "151218.805000", "151220.805000", "151222.805000", "151224.805000", "151226.805000", "151228.805000", "151230.805000", "151232.805000", "151234.805000", "151236.805000", "151238.805000", "151240.805000", "151242.805000", "151244.805000", "151246.805000", "151248.805000", "151250.805000", "151252.805000", "151254.805000", "151256.805000", "151258.805000", "151300.805000", "151302.805000", "151304.805000", "151306.805000", "151308.805000", "151310.805000", "151312.805000", "151314.805000", "151316.805000", "151318.805000", "151320.805000", "151322.805000", "151324.805000", "151326.805000", "151328.805000", "151330.805000", "151332.805000", "151334.805000", "151336.805000", "151338.805000", "151340.805000", "151342.805000", "151344.805000", "151346.805000", "151348.805000", "151350.805000", "151352.805000", "151354.805000", "151356.805000", "151358.805000", "151400.805000", "151402.805000", "151404.805000", "151406.805000", "151408.805000", "151410.805000", "151412.805000", "151414.805000", "151416.805000", "151418.805000", "151420.805000", "151422.805000", "151424.805000", "151426.805000", "151428.805000", "151430.805000", "151432.805000", "151434.805000", "151436.805000", "151438.805000", "151440.805000", "151442.805000", "151444.805000", "151446.805000", "151448.805000", "151450.805000", "151452.805000", "151454.805000", "151456.805000", "151458.805000", "151500.805000", "151502.805000", "151504.805000", "151506.805000", "151508.805000", "151510.805000", "151512.805000", "151514.805000", "151516.805000", "151518.805000", "151520.805000", "151522.805000", "151524.805000", "151526.805000", "151528.805000", "151530.805000", "151532.805000", "151534.805000", "151536.805000", "151538.805000", "151540.805000", "151542.805000", "151544.805000", "151546.805000", "151548.805000", "151550.805000", "151552.805000", "151554.805000", "151556.805000", "151558.805000", "151600.805000", "151602.805000", "151604.805000", "151606.805000", "151608.805000", "151610.805000", "151612.805000", "151614.805000", "151616.805000", "151618.805000", "151620.805000", "151622.805000", "151624.805000"],
      "ContentTime": ["150757.211000", "150758.706000", "150800.706000", "150802.706000", "150804.707000", "150806.706000", "150808.706000", "150810.706000", "150812.707000", "150814.706000", "150816.706000", "150818.707000", "150820.706000", "150822.706000", "150824.706000", "150826.706000", "150828.705000", "150830.706000", "150832.706000", "150834.707000", "150836.706000", "150838.706000", "150840.707000", "150842.707000", "150844.706000", "150846.705000", "150848.707000", "150850.707000", "150852.706000", "150854.726000", "150856.706000", "150858.706000", "150900.707000", "150902.705000", "150904.705000", "150906.707000", "150908.706000", "150910.706000", "150912.706000", "150914.707000", "150916.707000", "150918.705000", "150920.705000", "150922.707000", "150924.706000", "150926.706000", "150928.706000", "150930.707000", "150932.707000", "150934.706000", "150936.705000", "150938.706000", "150940.707000", "150942.706000", "150944.706000", "150946.707000", "150948.706000", "150950.707000", "150952.707000", "150954.706000", "150956.705000", "150958.706000", "151000.706000", "151002.707000", "151004.706000", "151006.706000", "151008.707000", "151010.706000", "151012.706000", "151014.706000", "151016.706000", "151018.706000", "151020.706000", "151022.706000", "151024.707000", "151026.706000", "151028.706000", "151030.706000", "151032.707000", "151034.707000", "151036.706000", "151038.707000", "151040.708000", "151042.706000", "151044.706000", "151046.705000", "151048.705000", "151050.707000", "151052.707000", "151054.706000", "151056.707000", "151058.707000", "151100.706000", "151102.706000", "151104.705000", "151106.705000", "151108.706000", "151110.707000", "151112.706000", "151114.707000", "151116.706000", "151118.707000", "151120.710000", "151122.705000", "151124.706000", "151126.707000", "151128.707000", "151130.706000", "151132.707000", "151134.706000", "151136.707000", "151138.706000", "151140.706000", "151142.707000", "151144.706000", "151146.707000", "151148.706000", "151150.706000", "151152.707000", "151154.706000", "151156.706000", "151158.715000", "151200.707000", "151202.707000", "151204.707000", "151206.707000", "151208.707000", "151210.706000", "151212.707000", "151214.706000", "151216.705000", "151218.706000", "151220.706000", "151222.707000", "151224.707000", "151226.707000", "151228.707000", "151230.707000", "151232.706000", "151234.709000", "151236.706000", "151238.707000", "151240.707000", "151242.707000", "151244.706000", "151246.706000", "151248.706000", "151250.706000", "151252.706000", "151254.707000", "151256.707000", "151258.706000", "151300.710000", "151302.706000", "151304.707000", "151306.705000", "151308.706000", "151310.706000", "151312.707000", "151314.707000", "151316.707000", "151318.707000", "151320.707000", "151322.706000", "151324.706000", "151326.705000", "151328.706000", "151330.706000", "151332.706000", "151334.706000", "151336.706000", "151338.707000", "151340.706000", "151342.705000", "151344.706000", "151346.706000", "151348.707000", "151350.706000", "151352.707000", "151354.707000", "151356.707000", "151358.705000", "151400.705000", "151402.706000", "151404.707000", "151406.707000", "151408.708000", "151410.707000", "151412.707000", "151414.706000", "151416.706000", "151418.705000", "151420.707000", "151422.707000", "151424.706000", "151426.707000", "151428.706000", "151430.707000", "151432.707000", "151434.706000", "151436.706000", "151438.707000", "151440.707000", "151442.707000", "151444.707000", "151446.706000", "151448.707000", "151450.707000", "151452.706000", "151454.706000", "151456.706000", "151458.707000", "151500.707000", "151502.706000", "151504.707000", "151506.707000", "151508.705000", "151510.706000", "151512.707000", "151514.707000", "151516.706000", "151518.707000", "151520.707000", "151522.707000", "151524.707000", "151526.706000", "151528.706000", "151530.706000", "151532.711000", "151534.707000", "151536.707000", "151538.707000", "151540.707000", "151542.707000", "151544.705000", "151546.705000", "151548.707000", "151550.706000", "151552.707000", "151554.707000", "151556.707000", "151558.707000", "151600.707000", "151602.705000", "151604.707000", "151606.706000", "151608.706000", "151610.706000", "151612.707000", "151614.707000", "151616.707000", "151618.706000", "151620.706000", "151622.707000", "151624.707000", "151626.505000"],
      "InstanceCreationTime": ["150757.211000", "150758.706000", "150800.706000", "150802.706000", "150804.707000", "150806.706000", "150808.706000", "150810.706000", "150812.707000", "150814.706000", "150816.706000", "150818.707000", "150820.706000", "150822.706000", "150824.706000", "150826.706000", "150828.705000", "150830.706000", "150832.706000", "150834.707000", "150836.706000", "150838.706000", "150840.707000", "150842.707000", "150844.706000", "150846.705000", "150848.707000", "150850.707000", "150852.706000", "150854.726000", "150856.706000", "150858.706000", "150900.707000", "150902.705000", "150904.705000", "150906.707000", "150908.706000", "150910.706000", "150912.706000", "150914.707000", "150916.707000", "150918.705000", "150920.705000", "150922.707000", "150924.706000", "150926.706000", "150928.706000", "150930.707000", "150932.707000", "150934.706000", "150936.705000", "150938.706000", "150940.707000", "150942.706000", "150944.706000", "150946.707000", "150948.706000", "150950.707000", "150952.707000", "150954.706000", "150956.705000", "150958.706000", "151000.706000", "151002.707000", "151004.706000", "151006.706000", "151008.707000", "151010.706000", "151012.706000", "151014.706000", "151016.706000", "151018.706000", "151020.706000", "151022.706000", "151024.707000", "151026.706000", "151028.706000", "151030.706000", "151032.707000", "151034.707000", "151036.706000", "151038.707000", "151040.708000", "151042.706000", "151044.706000", "151046.705000", "151048.705000", "151050.707000", "151052.707000", "151054.706000", "151056.707000", "151058.707000", "151100.706000", "151102.706000", "151104.705000", "151106.705000", "151108.706000", "151110.707000", "151112.706000", "151114.707000", "151116.706000", "151118.707000", "151120.710000", "151122.705000", "151124.706000", "151126.707000", "151128.707000", "151130.706000", "151132.707000", "151134.706000", "151136.707000", "151138.706000", "151140.706000", "151142.707000", "151144.706000", "151146.707000", "151148.706000", "151150.706000", "151152.707000", "151154.706000", "151156.706000", "151158.715000", "151200.707000", "151202.707000", "151204.707000", "151206.707000", "151208.707000", "151210.706000", "151212.707000", "151214.706000", "151216.705000", "151218.706000", "151220.706000", "151222.707000", "151224.707000", "151226.707000", "151228.707000", "151230.707000", "151232.706000", "151234.709000", "151236.706000", "151238.707000", "151240.707000", "151242.707000", "151244.706000", "151246.706000", "151248.706000", "151250.706000", "151252.706000", "151254.707000", "151256.707000", "151258.706000", "151300.710000", "151302.706000", "151304.707000", "151306.705000", "151308.706000", "151310.706000", "151312.707000", "151314.707000", "151316.707000", "151318.707000", "151320.707000", "151322.706000", "151324.706000", "151326.705000", "151328.706000", "151330.706000", "151332.706000", "151334.706000", "151336.706000", "151338.707000", "151340.706000", "151342.705000", "151344.706000", "151346.706000", "151348.707000", "151350.706000", "151352.707000", "151354.707000", "151356.707000", "151358.705000", "151400.705000", "151402.706000", "151404.707000", "151406.707000", "151408.708000", "151410.707000", "151412.707000", "151414.706000", "151416.706000", "151418.705000", "151420.707000", "151422.707000", "151424.706000", "151426.707000", "151428.706000", "151430.707000", "151432.707000", "151434.706000", "151436.706000", "151438.707000", "151440.707000", "151442.707000", "151444.707000", "151446.706000", "151448.707000", "151450.707000", "151452.706000", "151454.706000", "151456.706000", "151458.707000", "151500.707000", "151502.706000", "151504.707000", "151506.707000", "151508.705000", "151510.706000", "151512.707000", "151514.707000", "151516.706000", "151518.707000", "151520.707000", "151522.707000", "151524.707000", "151526.706000", "151528.706000", "151530.706000", "151532.711000", "151534.707000", "151536.707000", "151538.707000", "151540.707000", "151542.707000", "151544.705000", "151546.705000", "151548.707000", "151550.706000", "151552.707000", "151554.707000", "151556.707000", "151558.707000", "151600.707000", "151602.705000", "151604.707000", "151606.706000", "151608.706000", "151610.706000", "151612.707000", "151614.707000", "151616.707000", "151618.706000", "151620.706000", "151622.707000", "151624.707000", "151626.505000"],
      "InstanceNumber": [1, 2, 3, 4, 5, 6, 7, 8, 9, 10, 11, 12, 13, 14, 15, 16, 17, 18, 19, 20, 21, 22, 23, 24, 25, 26, 27, 28, 29, 30, 31, 32, 33, 34, 35, 36, 37, 38, 39, 40, 41, 42, 43, 44, 45, 46, 47, 48, 49, 50, 51, 52, 53, 54, 55, 56, 57, 58, 59, 60, 61, 62, 63, 64, 65, 66, 67, 68, 69, 70, 71, 72, 73, 74, 75, 76, 77, 78, 79, 80, 81, 82, 83, 84, 85, 86, 87, 88, 89, 90, 91, 92, 93, 94, 95, 96, 97, 98, 99, 100, 101, 102, 103, 104, 105, 106, 107, 108, 109, 110, 111, 112, 113, 114, 115, 116, 117, 118, 119, 120, 121, 122, 123, 124, 125, 126, 127, 128, 129, 130, 131, 132, 133, 134, 135, 136, 137, 138, 139, 140, 141, 142, 143, 144, 145, 146, 147, 148, 149, 150, 151, 152, 153, 154, 155, 156, 157, 158, 159, 160, 161, 162, 163, 164, 165, 166, 167, 168, 169, 170, 171, 172, 173, 174, 175, 176, 177, 178, 179, 180, 181, 182, 183, 184, 185, 186, 187, 188, 189, 190, 191, 192, 193, 194, 195, 196, 197, 198, 199, 200, 201, 202, 203, 204, 205, 206, 207, 208, 209, 210, 211, 212, 213, 214, 215, 216, 217, 218, 219, 220, 221, 222, 223, 224, 225, 226, 227, 228, 229, 230, 231, 232, 233, 234, 235, 236, 237, 238, 239, 240, 241, 242, 243, 244, 245, 246, 247, 248, 249, 250, 251, 252, 253, 254, 255, 256],
      "LargestImagePixelValue": [2587, 2291, 2260, 2305, 2319, 2271, 2314, 2296, 2238, 2508, 2208, 2596, 2189, 2583, 2225, 2557, 2456, 2276, 2269, 2340, 2209, 2420, 2223, 2668, 2228, 2665, 2372, 2211, 2211, 2448, 2189, 2580, 2378, 2364, 2261, 2594, 2212, 2614, 2220, 2546, 2180, 2494, 2419, 2427, 2375, 2399, 2224, 2660, 2202, 2679, 2253, 2397, 2195, 2621, 2439, 2437, 2211, 2606, 2208, 2493, 2202, 2777, 2215, 2498, 2194, 2464, 2368, 2343, 2210, 2325, 2210, 2517, 2228, 2494, 2638, 2412, 2239, 2414, 2378, 2337, 2220, 2595, 2184, 2561, 2199, 2544, 2190, 2536, 2198, 2607, 2447, 2396, 2248, 2765, 2217, 2733, 2451, 2464, 2203, 2640, 2184, 2645, 2467, 2373, 2206, 2620, 2244, 2375, 2184, 2440, 2218, 2700, 2220, 2531, 2436, 2405, 2219, 2597, 2176, 2637, 2167, 2555, 2202, 2647, 2180, 2689, 2473, 2456, 2211, 2511, 2152, 2562, 2231, 2624, 2489, 2405, 2249, 2638, 2479, 2400, 2334, 2375, 2353, 2441, 2200, 2485, 2169, 2566, 2355, 2222, 2411, 2369, 2187, 2612, 2216, 2177, 2154, 2716, 2194, 2860, 2173, 2599, 2490, 2454, 2201, 2602, 2160, 2526, 2177, 2597, 2201, 2620, 2484, 2407, 2330, 2373, 2281, 2692, 2369, 2335, 2228, 2577, 2219, 2674, 2177, 2696, 2505, 2416, 2207, 2454, 2361, 2330, 2345, 2386, 2225, 2176, 2209, 2345, 2510, 2462, 2176, 2622, 2183, 2565, 2196, 2650, 2166, 2634, 2483, 2444, 2435, 2451, 2224, 2179, 2212, 2772, 2171, 2718, 2190, 2512, 2435, 2328, 2315, 2328, 2300, 2452, 2219, 2628, 2256, 2478, 2228, 2433, 2400, 2371, 2303, 2325, 2221, 2551, 2418, 2356, 2154, 2186, 2169, 2750, 2254, 2491, 2475, 2394, 2383, 2294, 2325, 2319, 2408, 2277, 2334, 2324],
      "WindowCenter": [714.0, 711.0, 710.0, 710.0, 710.0, 710.0, 711.0, 711.0, 709.0, 711.0, 709.0, 715.0, 709.0, 713.0, 708.0, 713.0, 713.0, 710.0, 709.0, 709.0, 707.0, 711.0, 709.0, 714.0, 708.0, 714.0, 711.0, 709.0, 709.0, 712.0, 708.0, 714.0, 711.0, 710.0, 709.0, 713.0, 709.0, 715.0, 709.0, 712.0, 706.0, 711.0, 711.0, 710.0, 710.0, 710.0, 708.0, 712.0, 706.0, 713.0, 708.0, 711.0, 707.0, 713.0, 711.0, 711.0, 706.0, 711.0, 707.0, 711.0, 706.0, 714.0, 708.0, 712.0, 708.0, 712.0, 711.0, 710.0, 707.0, 708.0, 707.0, 712.0, 708.0, 711.0, 713.0, 710.0, 708.0, 711.0, 711.0, 710.0, 708.0, 712.0, 707.0, 713.0, 707.0, 712.0, 707.0, 712.0, 708.0, 713.0, 711.0, 708.0, 706.0, 716.0, 709.0, 714.0, 710.0, 709.0, 706.0, 712.0, 706.0, 712.0, 711.0, 708.0, 705.0, 712.0, 709.0, 711.0, 706.0, 710.0, 707.0, 714.0, 708.0, 712.0, 710.0, 710.0, 707.0, 713.0, 708.0, 714.0, 706.0, 712.0, 707.0, 713.0, 707.0, 714.0, 711.0, 711.0, 708.0, 712.0, 707.0, 711.0, 707.0, 713.0, 711.0, 710.0, 708.0, 713.0, 711.0, 709.0, 708.0, 709.0, 710.0, 711.0, 708.0, 712.0, 706.0, 712.0, 709.0, 707.0, 711.0, 709.0, 706.0, 713.0, 708.0, 707.0, 706.0, 713.0, 706.0, 714.0, 706.0, 712.0, 711.0, 709.0, 705.0, 711.0, 706.0, 712.0, 705.0, 712.0, 708.0, 713.0, 711.0, 709.0, 708.0, 708.0, 706.0, 713.0, 708.0, 707.0, 706.0, 712.0, 707.0, 713.0, 706.0, 714.0, 711.0, 709.0, 705.0, 710.0, 709.0, 708.0, 708.0, 710.0, 707.0, 705.0, 706.0, 708.0, 712.0, 711.0, 706.0, 712.0, 705.0, 712.0, 707.0, 713.0, 706.0, 712.0, 710.0, 710.0, 710.0, 710.0, 706.0, 705.0, 706.0, 714.0, 706.0, 714.0, 708.0, 712.0, 710.0, 708.0, 708.0, 708.0, 707.0, 711.0, 708.0, 714.0, 708.0, 710.0, 705.0, 709.0, 709.0, 709.0, 708.0, 708.0, 707.0, 713.0, 711.0, 709.0, 705.0, 705.0, 706.0, 715.0, 707.0, 710.0, 711.0, 710.0, 708.0, 707.0, 708.0, 708.0, 708.0, 707.0, 710.0, 709.0],
      "WindowWidth": [1514.0, 1507.0, 1505.0, 1505.0, 1504.0, 1505.0, 1508.0, 1507.0, 1502.0, 1507.0, 1502.0, 1516.0, 1503.0, 1512.0, 1501.0, 1512.0, 1512.0, 1506.0, 1503.0, 1502.0, 1497.0, 1508.0, 1503.0, 1514.0, 1501.0, 1514.0, 1508.0, 1502.0, 1503.0, 1509.0, 1500.0, 1513.0, 1507.0, 1506.0, 1502.0, 1512.0, 1503.0, 1517.0, 1503.0, 1508.0, 1495.0, 1506.0, 1506.0, 1505.0, 1504.0, 1505.0, 1500.0, 1510.0, 1497.0, 1512.0, 1502.0, 1506.0, 1499.0, 1511.0, 1507.0, 1506.0, 1497.0, 1507.0, 1497.0, 1507.0, 1497.0, 1514.0, 1501.0, 1510.0, 1501.0, 1509.0, 1506.0, 1505.0, 1498.0, 1500.0, 1498.0, 1509.0, 1500.0, 1508.0, 1510.0, 1506.0, 1502.0, 1506.0, 1506.0, 1505.0, 1500.0, 1510.0, 1499.0, 1511.0, 1498.0, 1509.0, 1499.0, 1508.0, 1500.0, 1512.0, 1506.0, 1500.0, 1496.0, 1518.0, 1504.0, 1513.0, 1503.0, 1501.0, 1495.0, 1510.0, 1496.0, 1510.0, 1506.0, 1500.0, 1493.0, 1508.0, 1502.0, 1507.0, 1496.0, 1504.0, 1499.0, 1513.0, 1499.0, 1508.0, 1505.0, 1504.0, 1498.0, 1511.0, 1500.0, 1513.0, 1497.0, 1508.0, 1498.0, 1511.0, 1497.0, 1513.0, 1506.0, 1506.0, 1500.0, 1510.0, 1497.0, 1507.0, 1498.0, 1511.0, 1507.0, 1503.0, 1499.0, 1512.0, 1506.0, 1501.0, 1500.0, 1502.0, 1504.0, 1507.0, 1500.0, 1508.0, 1496.0, 1507.0, 1502.0, 1497.0, 1505.0, 1502.0, 1496.0, 1511.0, 1501.0, 1498.0, 1494.0, 1510.0, 1494.0, 1513.0, 1495.0, 1508.0, 1505.0, 1502.0, 1492.0, 1507.0, 1495.0, 1508.0, 1494.0, 1508.0, 1499.0, 1512.0, 1505.0, 1501.0, 1499.0, 1500.0, 1496.0, 1509.0, 1499.0, 1497.0, 1494.0, 1507.0, 1497.0, 1510.0, 1495.0, 1512.0, 1506.0, 1503.0, 1494.0, 1503.0, 1501.0, 1498.0, 1499.0, 1503.0, 1498.0, 1494.0, 1494.0, 1501.0, 1508.0, 1506.0, 1495.0, 1507.0, 1494.0, 1508.0, 1497.0, 1511.0, 1495.0, 1509.0, 1504.0, 1504.0, 1504.0, 1504.0, 1496.0, 1493.0, 1495.0, 1512.0, 1494.0, 1513.0, 1499.0, 1508.0, 1504.0, 1501.0, 1500.0, 1500.0, 1499.0, 1506.0, 1501.0, 1514.0, 1499.0, 1503.0, 1493.0, 1502.0, 1503.0, 1502.0, 1499.0, 1500.0, 1497.0, 1511.0, 1506.0, 1503.0, 1494.0, 1494.0, 1495.0, 1514.0, 1497.0, 1504.0, 1506.0, 1503.0, 1500.0, 1497.0, 1499.0, 1499.0, 1500.0, 1498.0, 1503.0, 1501.0]
    },
    "slices": {}
  }
}