{
  "AcquisitionMatrixPE": 100,
  "AcquisitionNumber": 1,
  "AcquisitionTime": "15:57:15.777500",
  "BandwidthPerPixelPhaseEncode": 18.519,
  "BaseResolution": 100,
  "BodyPartExamined": "BRAIN",
  "ConsistencyInfo": "N4_VE11C_LATEST_20160120",
  "ConversionSoftware": "dcm2niix",
  "ConversionSoftwareVersion": "v1.0.20180622 GCC4.9.2",
  "DerivedVendorReportedEchoSpacing": 0.000539986,
  "DeviceSerialNumber": "166078",
  "DwellTime": 2.1e-06,
  "EchoTime": 0.034,
  "EchoTrainLength": 100,
  "EffectiveEchoSpacing": 0.000539986,
  "FlipAngle": 90,
  "ImageOrientationPatientDICOM": [0.999888, -0.0109462, 0.010219, 0.0104712, 0.998913, 0.0454298],
  "ImageType": [
    "ORIGINAL",
    "PRIMARY",
    "M",
    "ND",
    "MOSAIC"
],
  "InPlanePhaseEncodingDirectionDICOM": "COL",
  "InstitutionAddress": "Street_StreetNo_Bei_Jing_District_CN_ZIP",
  "InstitutionName": "BeiJing_Normal_University",
  "InstitutionalDepartmentName": "Department",
  "MRAcquisitionType": "2D",
  "MagneticFieldStrength": 3,
  "Manufacturer": "Siemens",
  "ManufacturersModelName": "Prisma",
  "Modality": "MR",
  "MultibandAccelerationFactor": 3,
  "PartialFourier": 1,
  "PatientPosition": "HFS",
  "PercentPhaseFOV": 100,
  "PhaseEncodingDirection": "j-",
  "PhaseEncodingSteps": 100,
  "PhaseResolution": 1,
  "PixelBandwidth": 2380,
  "ProcedureStepDescription": "BNU_P2018_64CH_Zhen.ZongLei",
  "ProtocolName": "bold_100x100_s3_2x2x2_static_256",
  "PulseSequenceDetails": "%SiemensSeq%_ep2d_bold",
  "ReceiveCoilActiveElements": "HC1-7;NC1",
  "ReceiveCoilName": "HeadNeck_64",
  "ReconMatrixPE": 100,
  "RepetitionTime": 2,
  "SAR": 0.071091,
  "ScanOptions": "FS",
  "ScanningSequence": "EP",
  "SequenceName": "_epfid2d1_100",
  "SequenceVariant": "SK",
  "SeriesDescription": "bold_100x100_s3_2x2x2_static_256",
  "SeriesNumber": 10,
  "ShimSetting": [-5459, -11492, -1340, 505, 5, -254, 1, 68],
  "SliceThickness": 2,
  "SliceTiming": [1.485, 0, 0.99, 0.0825, 1.0725, 0.165, 1.155, 0.2475, 1.2375, 0.33, 1.32, 0.4125, 1.4025, 0.5775, 1.5675, 0.66, 1.65, 0.7425, 1.7325, 0.825, 1.815, 0.9075, 1.8975, 0.495, 1.485, 0, 0.99, 0.0825, 1.0725, 0.165, 1.155, 0.2475, 1.2375, 0.33, 1.32, 0.4125, 1.4025, 0.5775, 1.5675, 0.66, 1.65, 0.7425, 1.7325, 0.825, 1.815, 0.9075, 1.8975, 0.495, 1.485, 0, 0.99, 0.0825, 1.0725, 0.165, 1.155, 0.2475, 1.2375, 0.33, 1.32, 0.4125, 1.4025, 0.5775, 1.5675, 0.66, 1.65, 0.7425, 1.7325, 0.825, 1.815, 0.9075, 1.8975, 0.495],
  "SoftwareVersions": "syngo_MR_E11",
  "SpacingBetweenSlices": 2,
  "StationName": "AWP166078",
  "TaskName": "naturalvision",
  "TotalReadoutTime": 0.0534586,
  "TxRefAmp": 211.897,
  "dcmmeta_affine": [
    [-1.999775767326355, 0.020942488685250282, 0.021410301327705383, 97.06842041015625],
    [0.02189243584871292, 1.997825264930725, 0.09063538908958435, -87.27497863769531],
    [0.020437955856323242, -0.09085959196090698, 1.9978305101394653, -84.22418212890625],
    [0.0, 0.0, 0.0, 1.0]
],
  "dcmmeta_reorient_transform": [
    [0.0, -1.0, 0.0, 99.0],
    [1.0, 0.0, 0.0, 0.0],
    [0.0, 0.0, 1.0, 0.0],
    [0.0, 0.0, 0.0, 1.0]
],
  "dcmmeta_shape": [100, 100, 72, 256],
  "dcmmeta_slice_dim": 2,
  "dcmmeta_version": 0.6,
  "global": {
    "const": {
      "AcquisitionMatrix": [100, 0, 0, 100],
      "AngioFlag": "N",
      "BitsAllocated": 16,
      "BitsStored": 12,
      "BodyPartExamined": "BRAIN",
      "Columns": 900,
      "EchoNumbers": 1,
      "EchoTime": 34.0,
      "EchoTrainLength": 100,
      "FlipAngle": 90.0,
      "HighBit": 11,
      "ImageOrientationPatient": [0.99988787010732, -0.0109462182917, 0.01021897829354, 0.01047124398999, 0.99891265219936, 0.04542979556786],
      "ImagePositionPatient": [-907.42901583322, -900.88287187676, -137.73830016178],
      "ImageType": [
        "ORIGINAL",
        "PRIMARY",
        "M",
        "ND",
        "MOSAIC"
],
      "ImagedNucleus": "1H",
      "ImagingFrequency": 123.257801,
      "InPlanePhaseEncodingDirection": "COL",
      "MRAcquisitionType": "2D",
      "MagneticFieldStrength": 3.0,
      "Manufacturer": "SIEMENS",
      "ManufacturerModelName": "Prisma",
      "Modality": "MR",
      "NumberOfAverages": 1.0,
      "NumberOfPhaseEncodingSteps": 100,
      "PercentPhaseFieldOfView": 100.0,
      "PercentSampling": 100.0,
      "PerformedProcedureStepStartTime": "150445.485000",
      "PhotometricInterpretation": "MONOCHROME2",
      "PixelBandwidth": 2380.0,
      "PixelRepresentation": 0,
      "PixelSpacing": [2.0, 2.0],
      "ProtocolName": "bold_100x100_s3_2x2x2_static_256",
      "RepetitionTime": 2000.0,
      "Rows": 900,
      "SAR": 0.07109095885845,
      "SamplesPerPixel": 1,
      "ScanOptions": "FS",
      "ScanningSequence": "EP",
      "SequenceName": "*epfid2d1_100",
      "SequenceVariant": "SK",
      "SeriesDescription": "bold_100x100_s3_2x2x2_static_256",
      "SeriesNumber": 10,
      "SeriesTime": "155718.238000",
      "SliceLocation": -87.048789560308,
      "SliceThickness": 2.0,
      "SmallestImagePixelValue": 0,
      "SoftwareVersions": "syngo MR E11",
      "SpacingBetweenSlices": 1.9999999817312,
      "SpecificCharacterSet": "ISO_IR 100",
      "StudyID": "1",
      "StudyTime": "150445.397000",
      "TransmitCoilName": "Body",
      "VariableFlipAngleFlag": "N",
      "WindowCenterWidthExplanation": "Algo1",
      "dBdt": 0.0},
    "slices": {}
  },
  "time": {
    "samples": {
      "AcquisitionNumber": [1, 2, 3, 4, 5, 6, 7, 8, 9, 10, 11, 12, 13, 14, 15, 16, 17, 18, 19, 20, 21, 22, 23, 24, 25, 26, 27, 28, 29, 30, 31, 32, 33, 34, 35, 36, 37, 38, 39, 40, 41, 42, 43, 44, 45, 46, 47, 48, 49, 50, 51, 52, 53, 54, 55, 56, 57, 58, 59, 60, 61, 62, 63, 64, 65, 66, 67, 68, 69, 70, 71, 72, 73, 74, 75, 76, 77, 78, 79, 80, 81, 82, 83, 84, 85, 86, 87, 88, 89, 90, 91, 92, 93, 94, 95, 96, 97, 98, 99, 100, 101, 102, 103, 104, 105, 106, 107, 108, 109, 110, 111, 112, 113, 114, 115, 116, 117, 118, 119, 120, 121, 122, 123, 124, 125, 126, 127, 128, 129, 130, 131, 132, 133, 134, 135, 136, 137, 138, 139, 140, 141, 142, 143, 144, 145, 146, 147, 148, 149, 150, 151, 152, 153, 154, 155, 156, 157, 158, 159, 160, 161, 162, 163, 164, 165, 166, 167, 168, 169, 170, 171, 172, 173, 174, 175, 176, 177, 178, 179, 180, 181, 182, 183, 184, 185, 186, 187, 188, 189, 190, 191, 192, 193, 194, 195, 196, 197, 198, 199, 200, 201, 202, 203, 204, 205, 206, 207, 208, 209, 210, 211, 212, 213, 214, 215, 216, 217, 218, 219, 220, 221, 222, 223, 224, 225, 226, 227, 228, 229, 230, 231, 232, 233, 234, 235, 236, 237, 238, 239, 240, 241, 242, 243, 244, 245, 246, 247, 248, 249, 250, 251, 252, 253, 254, 255, 256],
      "AcquisitionTime": ["155715.777500", "155717.777500", "155719.777500", "155721.777500", "155723.777500", "155725.777500", "155727.777500", "155729.777500", "155731.777500", "155733.777500", "155735.777500", "155737.777500", "155739.777500", "155741.777500", "155743.777500", "155745.777500", "155747.777500", "155749.777500", "155751.777500", "155753.777500", "155755.777500", "155757.777500", "155759.777500", "155801.777500", "155803.777500", "155805.777500", "155807.777500", "155809.777500", "155811.777500", "155813.777500", "155815.777500", "155817.777500", "155819.777500", "155821.777500", "155823.777500", "155825.777500", "155827.777500", "155829.777500", "155831.777500", "155833.777500", "155835.777500", "155837.777500", "155839.777500", "155841.777500", "155843.777500", "155845.777500", "155847.777500", "155849.777500", "155851.777500", "155853.777500", "155855.777500", "155857.777500", "155859.777500", "155901.777500", "155903.777500", "155905.777500", "155907.777500", "155909.777500", "155911.777500", "155913.777500", "155915.777500", "155917.777500", "155919.777500", "155921.777500", "155923.777500", "155925.777500", "155927.777500", "155929.777500", "155931.777500", "155933.777500", "155935.777500", "155937.777500", "155939.777500", "155941.777500", "155943.777500", "155945.777500", "155947.777500", "155949.777500", "155951.777500", "155953.777500", "155955.777500", "155957.777500", "155959.777500", "160001.777500", "160003.777500", "160005.777500", "160007.777500", "160009.777500", "160011.777500", "160013.777500", "160015.777500", "160017.777500", "160019.777500", "160021.777500", "160023.777500", "160025.777500", "160027.777500", "160029.777500", "160031.777500", "160033.777500", "160035.777500", "160037.777500", "160039.777500", "160041.777500", "160043.777500", "160045.777500", "160047.777500", "160049.777500", "160051.777500", "160053.777500", "160055.777500", "160057.777500", "160059.777500", "160101.777500", "160103.777500", "160105.777500", "160107.777500", "160109.777500", "160111.777500", "160113.777500", "160115.777500", "160117.777500", "160119.777500", "160121.777500", "160123.777500", "160125.777500", "160127.777500", "160129.777500", "160131.777500", "160133.777500", "160135.777500", "160137.777500", "160139.777500", "160141.777500", "160143.777500", "160145.777500", "160147.777500", "160149.777500", "160151.777500", "160153.777500", "160155.777500", "160157.777500", "160159.777500", "160201.777500", "160203.777500", "160205.777500", "160207.777500", "160209.777500", "160211.777500", "160213.777500", "160215.777500", "160217.777500", "160219.777500", "160221.777500", "160223.777500", "160225.777500", "160227.777500", "160229.777500", "160231.777500", "160233.777500", "160235.777500", "160237.777500", "160239.777500", "160241.777500", "160243.777500", "160245.777500", "160247.777500", "160249.777500", "160251.777500", "160253.777500", "160255.777500", "160257.777500", "160259.777500", "160301.777500", "160303.777500", "160305.777500", "160307.777500", "160309.777500", "160311.777500", "160313.777500", "160315.777500", "160317.777500", "160319.777500", "160321.777500", "160323.777500", "160325.777500", "160327.777500", "160329.777500", "160331.777500", "160333.777500", "160335.777500", "160337.777500", "160339.777500", "160341.777500", "160343.777500", "160345.777500", "160347.777500", "160349.777500", "160351.777500", "160353.777500", "160355.777500", "160357.777500", "160359.777500", "160401.777500", "160403.777500", "160405.777500", "160407.777500", "160409.777500", "160411.777500", "160413.777500", "160415.777500", "160417.777500", "160419.777500", "160421.777500", "160423.777500", "160425.777500", "160427.777500", "160429.777500", "160431.777500", "160433.777500", "160435.777500", "160437.777500", "160439.777500", "160441.777500", "160443.777500", "160445.777500", "160447.777500", "160449.777500", "160451.777500", "160453.777500", "160455.777500", "160457.777500", "160459.777500", "160501.777500", "160503.777500", "160505.777500", "160507.777500", "160509.777500", "160511.777500", "160513.777500", "160515.777500", "160517.777500", "160519.777500", "160521.777500", "160523.777500", "160525.777500", "160527.777500", "160529.777500", "160531.777500", "160533.777500", "160535.777500", "160537.777500", "160539.777500", "160541.777500", "160543.777500", "160545.777500"],
      "ContentTime": ["155718.242000", "155719.737000", "155721.738000", "155723.737000", "155725.737000", "155727.739000", "155729.738000", "155731.739000", "155733.737000", "155735.738000", "155737.738000", "155739.738000", "155741.737000", "155743.737000", "155745.738000", "155747.738000", "155749.738000", "155751.737000", "155753.738000", "155755.738000", "155757.737000", "155759.738000", "155801.737000", "155803.738000", "155805.738000", "155807.738000", "155809.738000", "155811.737000", "155813.738000", "155815.738000", "155817.737000", "155819.737000", "155821.738000", "155823.742000", "155825.737000", "155827.737000", "155829.737000", "155831.738000", "155833.737000", "155835.737000", "155837.738000", "155839.739000", "155841.738000", "155843.737000", "155845.738000", "155847.738000", "155849.738000", "155851.737000", "155853.737000", "155855.738000", "155857.739000", "155859.738000", "155901.737000", "155903.738000", "155905.738000", "155907.737000", "155909.737000", "155911.737000", "155913.738000", "155915.738000", "155917.737000", "155919.738000", "155921.738000", "155923.738000", "155925.737000", "155927.737000", "155929.739000", "155931.739000", "155933.739000", "155935.738000", "155937.738000", "155939.737000", "155941.738000", "155943.738000", "155945.738000", "155947.738000", "155949.738000", "155951.738000", "155953.738000", "155955.737000", "155957.738000", "155959.738000", "160001.737000", "160003.737000", "160005.739000", "160007.738000", "160009.738000", "160011.738000", "160013.738000", "160015.737000", "160017.738000", "160019.737000", "160021.737000", "160023.738000", "160025.739000", "160027.738000", "160029.738000", "160031.738000", "160033.737000", "160035.737000", "160037.738000", "160039.738000", "160041.738000", "160043.738000", "160045.738000", "160047.737000", "160049.738000", "160051.738000", "160053.737000", "160055.738000", "160057.739000", "160059.738000", "160101.739000", "160103.738000", "160105.738000", "160107.737000", "160109.737000", "160111.738000", "160113.737000", "160115.738000", "160117.738000", "160119.738000", "160121.738000", "160123.738000", "160125.738000", "160127.737000", "160129.737000", "160131.737000", "160133.738000", "160135.738000", "160137.738000", "160139.737000", "160141.737000", "160143.738000", "160145.737000", "160147.737000", "160149.739000", "160151.739000", "160153.738000", "160155.738000", "160157.738000", "160159.738000", "160201.737000", "160203.737000", "160205.737000", "160207.739000", "160209.739000", "160211.739000", "160213.737000", "160215.737000", "160217.737000", "160219.737000", "160221.737000", "160223.738000", "160225.739000", "160227.738000", "160229.738000", "160231.737000", "160233.738000", "160235.738000", "160237.737000", "160239.737000", "160241.737000", "160243.738000", "160245.738000", "160247.737000", "160249.738000", "160251.738000", "160253.738000", "160255.737000", "160257.737000", "160259.738000", "160301.738000", "160303.739000", "160305.738000", "160307.737000", "160309.738000", "160311.738000", "160313.737000", "160315.738000", "160317.738000", "160319.738000", "160321.738000", "160323.737000", "160325.738000", "160327.738000", "160329.738000", "160331.738000", "160333.738000", "160335.739000", "160337.738000", "160339.738000", "160341.738000", "160343.737000", "160345.737000", "160347.737000", "160349.737000", "160351.737000", "160353.738000", "160355.738000", "160357.737000", "160359.737000", "160401.738000", "160403.738000", "160405.737000", "160407.738000", "160409.738000", "160411.738000", "160413.739000", "160415.737000", "160417.738000", "160419.737000", "160421.737000", "160423.737000", "160425.738000", "160427.738000", "160429.738000", "160431.738000", "160433.737000", "160435.737000", "160437.738000", "160439.737000", "160441.738000", "160443.737000", "160445.739000", "160447.738000", "160449.737000", "160451.737000", "160453.737000", "160455.737000", "160457.738000", "160459.753000", "160501.738000", "160503.738000", "160505.738000", "160507.738000", "160509.738000", "160511.737000", "160513.738000", "160515.738000", "160517.737000", "160519.739000", "160521.738000", "160523.739000", "160525.738000", "160527.738000", "160529.738000", "160531.738000", "160533.738000", "160535.737000", "160537.738000", "160539.739000", "160541.738000", "160543.738000", "160545.737000", "160547.448000"],
      "InstanceCreationTime": ["155718.242000", "155719.737000", "155721.738000", "155723.737000", "155725.737000", "155727.739000", "155729.738000", "155731.739000", "155733.737000", "155735.738000", "155737.738000", "155739.738000", "155741.737000", "155743.737000", "155745.738000", "155747.738000", "155749.738000", "155751.737000", "155753.738000", "155755.738000", "155757.737000", "155759.738000", "155801.737000", "155803.738000", "155805.738000", "155807.738000", "155809.738000", "155811.737000", "155813.738000", "155815.738000", "155817.737000", "155819.737000", "155821.738000", "155823.742000", "155825.737000", "155827.737000", "155829.737000", "155831.738000", "155833.737000", "155835.737000", "155837.738000", "155839.739000", "155841.738000", "155843.737000", "155845.738000", "155847.738000", "155849.738000", "155851.737000", "155853.737000", "155855.738000", "155857.739000", "155859.738000", "155901.737000", "155903.738000", "155905.738000", "155907.737000", "155909.737000", "155911.737000", "155913.738000", "155915.738000", "155917.737000", "155919.738000", "155921.738000", "155923.738000", "155925.737000", "155927.737000", "155929.739000", "155931.739000", "155933.739000", "155935.738000", "155937.738000", "155939.737000", "155941.738000", "155943.738000", "155945.738000", "155947.738000", "155949.738000", "155951.738000", "155953.738000", "155955.737000", "155957.738000", "155959.738000", "160001.737000", "160003.737000", "160005.739000", "160007.738000", "160009.738000", "160011.738000", "160013.738000", "160015.737000", "160017.738000", "160019.737000", "160021.737000", "160023.738000", "160025.739000", "160027.738000", "160029.738000", "160031.738000", "160033.737000", "160035.737000", "160037.738000", "160039.738000", "160041.738000", "160043.738000", "160045.738000", "160047.737000", "160049.738000", "160051.738000", "160053.737000", "160055.738000", "160057.739000", "160059.738000", "160101.739000", "160103.738000", "160105.738000", "160107.737000", "160109.737000", "160111.738000", "160113.737000", "160115.738000", "160117.738000", "160119.738000", "160121.738000", "160123.738000", "160125.738000", "160127.737000", "160129.737000", "160131.737000", "160133.738000", "160135.738000", "160137.738000", "160139.737000", "160141.737000", "160143.738000", "160145.737000", "160147.737000", "160149.739000", "160151.739000", "160153.738000", "160155.738000", "160157.738000", "160159.738000", "160201.737000", "160203.737000", "160205.737000", "160207.739000", "160209.739000", "160211.739000", "160213.737000", "160215.737000", "160217.737000", "160219.737000", "160221.737000", "160223.738000", "160225.739000", "160227.738000", "160229.738000", "160231.737000", "160233.738000", "160235.738000", "160237.737000", "160239.737000", "160241.737000", "160243.738000", "160245.738000", "160247.737000", "160249.738000", "160251.738000", "160253.738000", "160255.737000", "160257.737000", "160259.738000", "160301.738000", "160303.739000", "160305.738000", "160307.737000", "160309.738000", "160311.738000", "160313.737000", "160315.738000", "160317.738000", "160319.738000", "160321.738000", "160323.737000", "160325.738000", "160327.738000", "160329.738000", "160331.738000", "160333.738000", "160335.739000", "160337.738000", "160339.738000", "160341.738000", "160343.737000", "160345.737000", "160347.737000", "160349.737000", "160351.737000", "160353.738000", "160355.738000", "160357.737000", "160359.737000", "160401.738000", "160403.738000", "160405.737000", "160407.738000", "160409.738000", "160411.738000", "160413.739000", "160415.737000", "160417.738000", "160419.737000", "160421.737000", "160423.737000", "160425.738000", "160427.738000", "160429.738000", "160431.738000", "160433.737000", "160435.737000", "160437.738000", "160439.737000", "160441.738000", "160443.737000", "160445.739000", "160447.738000", "160449.737000", "160451.737000", "160453.737000", "160455.737000", "160457.738000", "160459.753000", "160501.738000", "160503.738000", "160505.738000", "160507.738000", "160509.738000", "160511.737000", "160513.738000", "160515.738000", "160517.737000", "160519.739000", "160521.738000", "160523.739000", "160525.738000", "160527.738000", "160529.738000", "160531.738000", "160533.738000", "160535.737000", "160537.738000", "160539.739000", "160541.738000", "160543.738000", "160545.737000", "160547.448000"],
      "InstanceNumber": [1, 2, 3, 4, 5, 6, 7, 8, 9, 10, 11, 12, 13, 14, 15, 16, 17, 18, 19, 20, 21, 22, 23, 24, 25, 26, 27, 28, 29, 30, 31, 32, 33, 34, 35, 36, 37, 38, 39, 40, 41, 42, 43, 44, 45, 46, 47, 48, 49, 50, 51, 52, 53, 54, 55, 56, 57, 58, 59, 60, 61, 62, 63, 64, 65, 66, 67, 68, 69, 70, 71, 72, 73, 74, 75, 76, 77, 78, 79, 80, 81, 82, 83, 84, 85, 86, 87, 88, 89, 90, 91, 92, 93, 94, 95, 96, 97, 98, 99, 100, 101, 102, 103, 104, 105, 106, 107, 108, 109, 110, 111, 112, 113, 114, 115, 116, 117, 118, 119, 120, 121, 122, 123, 124, 125, 126, 127, 128, 129, 130, 131, 132, 133, 134, 135, 136, 137, 138, 139, 140, 141, 142, 143, 144, 145, 146, 147, 148, 149, 150, 151, 152, 153, 154, 155, 156, 157, 158, 159, 160, 161, 162, 163, 164, 165, 166, 167, 168, 169, 170, 171, 172, 173, 174, 175, 176, 177, 178, 179, 180, 181, 182, 183, 184, 185, 186, 187, 188, 189, 190, 191, 192, 193, 194, 195, 196, 197, 198, 199, 200, 201, 202, 203, 204, 205, 206, 207, 208, 209, 210, 211, 212, 213, 214, 215, 216, 217, 218, 219, 220, 221, 222, 223, 224, 225, 226, 227, 228, 229, 230, 231, 232, 233, 234, 235, 236, 237, 238, 239, 240, 241, 242, 243, 244, 245, 246, 247, 248, 249, 250, 251, 252, 253, 254, 255, 256],
      "LargestImagePixelValue": [2385, 2387, 2374, 2369, 2189, 2465, 2405, 2424, 2408, 2639, 2743, 2426, 2414, 2553, 2584, 2438, 2360, 2367, 2388, 2375, 2362, 2341, 2335, 2332, 2423, 2449, 2368, 2351, 2401, 2549, 2421, 2793, 2408, 2437, 2297, 2420, 2340, 2450, 2608, 2390, 2342, 2582, 2416, 2184, 2512, 2399, 2365, 2369, 2310, 2280, 2383, 2301, 2262, 2258, 2384, 2289, 2321, 2450, 2421, 2301, 2300, 2312, 2315, 2490, 2435, 2642, 2417, 2339, 2239, 2184, 2457, 2312, 2383, 2286, 2365, 2122, 2707, 2367, 2283, 2156, 2546, 2398, 2353, 2374, 2177, 2436, 2386, 2391, 2390, 2383, 2353, 2446, 2365, 2362, 2804, 2536, 2531, 2454, 2553, 2161, 2579, 2601, 2337, 2508, 2369, 2323, 2368, 2500, 2375, 2355, 2389, 2124, 2602, 2352, 2328, 2297, 2284, 2288, 2424, 2396, 2451, 2294, 2654, 2378, 2692, 2362, 2301, 2296, 2347, 2293, 2648, 2337, 2652, 2402, 2405, 2345, 2685, 2137, 2445, 2343, 2138, 2469, 2347, 2330, 2776, 2317, 2411, 2200, 2403, 2259, 2371, 2333, 2526, 2327, 2280, 2419, 2606, 2363, 2335, 2292, 2399, 2214, 2358, 2338, 2329, 2540, 2159, 2549, 2771, 2323, 2339, 2275, 2435, 2439, 2456, 2415, 2412, 2316, 2553, 2148, 2659, 2517, 2367, 2301, 2466, 2159, 2647, 2411, 2585, 2427, 2368, 2622, 2492, 2511, 2415, 2396, 2633, 2621, 2437, 2446, 2444, 2525, 2448, 2495, 2762, 2405, 2744, 2244, 2621, 2421, 2374, 2383, 2462, 2297, 2447, 2651, 2421, 2471, 2456, 2187, 2794, 2485, 2432, 2411, 2520, 2161, 2245, 2251, 2334, 2377, 2497, 2447, 2397, 2497, 2428, 2408, 2857, 2411, 2429, 2494, 2651, 2667, 2373, 2378, 2529, 2412, 2676, 2277, 2668, 2431, 2596, 2382, 2178, 2518, 2270, 2345],
      "WindowCenter": [718.0, 717.0, 716.0, 716.0, 713.0, 718.0, 717.0, 717.0, 717.0, 719.0, 720.0, 717.0, 717.0, 719.0, 719.0, 718.0, 716.0, 716.0, 715.0, 714.0, 714.0, 714.0, 714.0, 714.0, 716.0, 716.0, 716.0, 716.0, 715.0, 715.0, 714.0, 719.0, 714.0, 716.0, 714.0, 716.0, 715.0, 716.0, 717.0, 715.0, 714.0, 717.0, 715.0, 712.0, 716.0, 714.0, 714.0, 714.0, 714.0, 713.0, 715.0, 714.0, 713.0, 713.0, 714.0, 713.0, 714.0, 716.0, 715.0, 714.0, 715.0, 715.0, 714.0, 717.0, 716.0, 718.0, 716.0, 715.0, 713.0, 712.0, 716.0, 714.0, 715.0, 714.0, 715.0, 711.0, 718.0, 714.0, 713.0, 711.0, 718.0, 715.0, 714.0, 714.0, 711.0, 715.0, 714.0, 715.0, 714.0, 713.0, 713.0, 714.0, 714.0, 714.0, 720.0, 717.0, 717.0, 716.0, 717.0, 711.0, 718.0, 718.0, 715.0, 717.0, 715.0, 714.0, 714.0, 716.0, 716.0, 715.0, 716.0, 710.0, 717.0, 715.0, 715.0, 715.0, 714.0, 713.0, 716.0, 716.0, 716.0, 713.0, 718.0, 715.0, 720.0, 716.0, 714.0, 713.0, 713.0, 713.0, 718.0, 715.0, 718.0, 715.0, 716.0, 715.0, 720.0, 711.0, 716.0, 716.0, 712.0, 717.0, 715.0, 715.0, 720.0, 714.0, 716.0, 713.0, 716.0, 714.0, 716.0, 715.0, 717.0, 714.0, 714.0, 715.0, 717.0, 715.0, 715.0, 715.0, 716.0, 713.0, 715.0, 714.0, 715.0, 718.0, 712.0, 718.0, 720.0, 715.0, 716.0, 715.0, 717.0, 717.0, 717.0, 716.0, 716.0, 715.0, 719.0, 712.0, 719.0, 718.0, 716.0, 714.0, 716.0, 711.0, 718.0, 716.0, 718.0, 716.0, 716.0, 719.0, 717.0, 717.0, 715.0, 716.0, 719.0, 719.0, 716.0, 716.0, 716.0, 717.0, 716.0, 717.0, 720.0, 715.0, 720.0, 713.0, 718.0, 716.0, 716.0, 716.0, 717.0, 714.0, 717.0, 720.0, 716.0, 717.0, 717.0, 713.0, 722.0, 718.0, 717.0, 715.0, 717.0, 712.0, 714.0, 714.0, 715.0, 715.0, 717.0, 716.0, 715.0, 716.0, 715.0, 715.0, 720.0, 716.0, 716.0, 717.0, 719.0, 718.0, 716.0, 715.0, 718.0, 717.0, 720.0, 714.0, 719.0, 715.0, 718.0, 717.0, 714.0, 718.0, 715.0, 715.0],
      "WindowWidth": [1525.0, 1521.0, 1518.0, 1517.0, 1513.0, 1523.0, 1521.0, 1521.0, 1519.0, 1525.0, 1528.0, 1522.0, 1522.0, 1525.0, 1526.0, 1523.0, 1520.0, 1517.0, 1516.0, 1514.0, 1513.0, 1513.0, 1514.0, 1514.0, 1517.0, 1519.0, 1519.0, 1518.0, 1515.0, 1515.0, 1513.0, 1523.0, 1514.0, 1518.0, 1514.0, 1519.0, 1516.0, 1519.0, 1521.0, 1516.0, 1514.0, 1519.0, 1516.0, 1511.0, 1519.0, 1513.0, 1513.0, 1514.0, 1514.0, 1513.0, 1516.0, 1514.0, 1513.0, 1510.0, 1513.0, 1511.0, 1515.0, 1518.0, 1516.0, 1514.0, 1515.0, 1515.0, 1514.0, 1520.0, 1518.0, 1523.0, 1519.0, 1517.0, 1512.0, 1509.0, 1518.0, 1514.0, 1516.0, 1514.0, 1517.0, 1507.0, 1523.0, 1514.0, 1512.0, 1508.0, 1522.0, 1516.0, 1513.0, 1512.0, 1507.0, 1515.0, 1514.0, 1515.0, 1514.0, 1512.0, 1511.0, 1514.0, 1513.0, 1515.0, 1527.0, 1520.0, 1520.0, 1517.0, 1520.0, 1508.0, 1521.0, 1522.0, 1517.0, 1521.0, 1516.0, 1513.0, 1514.0, 1519.0, 1517.0, 1517.0, 1517.0, 1505.0, 1521.0, 1515.0, 1517.0, 1516.0, 1513.0, 1511.0, 1518.0, 1518.0, 1519.0, 1512.0, 1523.0, 1516.0, 1527.0, 1518.0, 1514.0, 1512.0, 1512.0, 1512.0, 1524.0, 1516.0, 1523.0, 1516.0, 1519.0, 1517.0, 1527.0, 1508.0, 1519.0, 1518.0, 1510.0, 1520.0, 1517.0, 1516.0, 1528.0, 1515.0, 1518.0, 1511.0, 1518.0, 1514.0, 1519.0, 1517.0, 1519.0, 1513.0, 1513.0, 1517.0, 1521.0, 1515.0, 1517.0, 1516.0, 1519.0, 1513.0, 1517.0, 1515.0, 1515.0, 1522.0, 1510.0, 1522.0, 1527.0, 1516.0, 1518.0, 1516.0, 1521.0, 1522.0, 1521.0, 1518.0, 1517.0, 1515.0, 1524.0, 1510.0, 1526.0, 1522.0, 1518.0, 1515.0, 1519.0, 1507.0, 1523.0, 1519.0, 1523.0, 1519.0, 1517.0, 1525.0, 1520.0, 1519.0, 1517.0, 1517.0, 1525.0, 1524.0, 1519.0, 1518.0, 1517.0, 1520.0, 1519.0, 1521.0, 1527.0, 1515.0, 1526.0, 1513.0, 1523.0, 1517.0, 1517.0, 1518.0, 1519.0, 1515.0, 1521.0, 1526.0, 1519.0, 1520.0, 1520.0, 1512.0, 1533.0, 1524.0, 1519.0, 1516.0, 1519.0, 1510.0, 1514.0, 1514.0, 1516.0, 1516.0, 1520.0, 1517.0, 1515.0, 1518.0, 1516.0, 1515.0, 1527.0, 1517.0, 1518.0, 1521.0, 1524.0, 1523.0, 1517.0, 1516.0, 1522.0, 1521.0, 1528.0, 1515.0, 1524.0, 1517.0, 1523.0, 1520.0, 1513.0, 1524.0, 1516.0, 1517.0]
    },
    "slices": {}
  }
}