{
 "AcquisitionMatrixPE": 100,
 "AcquisitionNumber": 1,
 "AcquisitionTime": "15:35:59.447500",
 "BandwidthPerPixelPhaseEncode": 18.519,
 "BaseResolution": 100,
 "BodyPartExamined": "BRAIN",
 "ConsistencyInfo": "N4_VE11C_LATEST_20160120",
 "ConversionSoftware": "dcm2niix",
 "ConversionSoftwareVersion": "v1.0.20180622 GCC4.9.2",
 "DerivedVendorReportedEchoSpacing": 0.000539986,
 "DeviceSerialNumber": "166078",
 "DwellTime": 2.1e-06,
 "EchoTime": 0.034,
 "EchoTrainLength": 100,
 "EffectiveEchoSpacing": 0.000539986,
 "FlipAngle": 90,
 "ImageOrientationPatientDICOM": [
  0.999888,
  -0.0109462,
  0.010219,
  0.0104712,
  0.998913,
  0.0454298
 ],
 "ImageType": [
  "ORIGINAL",
  "PRIMARY",
  "M",
  "ND",
  "MOSAIC"
 ],
 "InPlanePhaseEncodingDirectionDICOM": "COL",
 "InstitutionAddress": "Street_StreetNo_Bei_Jing_District_CN_ZIP",
 "InstitutionName": "BeiJing_Normal_University",
 "InstitutionalDepartmentName": "Department",
 "MRAcquisitionType": "2D",
 "MagneticFieldStrength": 3,
 "Manufacturer": "Siemens",
 "ManufacturersModelName": "Prisma",
 "Modality": "MR",
 "MultibandAccelerationFactor": 3,
 "PartialFourier": 1,
 "PatientPosition": "HFS",
 "PercentPhaseFOV": 100,
 "PhaseEncodingDirection": "j-",
 "PhaseEncodingSteps": 100,
 "PhaseResolution": 1,
 "PixelBandwidth": 2380,
 "ProcedureStepDescription": "BNU_P2018_64CH_Zhen.ZongLei",
 "ProtocolName": "bold_100x100_s3_2x2x2_static_256",
 "PulseSequenceDetails": "%SiemensSeq%_ep2d_bold",
 "ReceiveCoilActiveElements": "HC1-7;NC1",
 "ReceiveCoilName": "HeadNeck_64",
 "ReconMatrixPE": 100,
 "RepetitionTime": 2,
 "SAR": 0.071091,
 "ScanOptions": "FS",
 "ScanningSequence": "EP",
 "SequenceName": "_epfid2d1_100",
 "SequenceVariant": "SK",
 "SeriesDescription": "bold_100x100_s3_2x2x2_static_256",
 "SeriesNumber": 6,
 "ShimSetting": [
  -5459,
  -11492,
  -1340,
  505,
  5,
  -254,
  1,
  68
 ],
 "SliceThickness": 2,
 "SliceTiming": [
  1.485,
  0,
  0.99,
  0.0825,
  1.0725,
  0.165,
  1.155,
  0.2475,
  1.2375,
  0.33,
  1.32,
  0.4125,
  1.4025,
  0.5775,
  1.5675,
  0.66,
  1.65,
  0.7425,
  1.7325,
  0.825,
  1.815,
  0.9075,
  1.8975,
  0.495,
  1.485,
  0,
  0.99,
  0.0825,
  1.0725,
  0.165,
  1.155,
  0.2475,
  1.2375,
  0.33,
  1.32,
  0.4125,
  1.4025,
  0.5775,
  1.5675,
  0.66,
  1.65,
  0.7425,
  1.7325,
  0.825,
  1.815,
  0.9075,
  1.8975,
  0.495,
  1.485,
  0,
  0.99,
  0.0825,
  1.0725,
  0.165,
  1.155,
  0.2475,
  1.2375,
  0.33,
  1.32,
  0.4125,
  1.4025,
  0.5775,
  1.5675,
  0.66,
  1.65,
  0.7425,
  1.7325,
  0.825,
  1.815,
  0.9075,
  1.8975,
  0.495
 ],
 "SoftwareVersions": "syngo_MR_E11",
 "SpacingBetweenSlices": 2,
 "StationName": "AWP166078",
 "TaskName": "imagenet",
 "TotalReadoutTime": 0.0534586,
 "TxRefAmp": 211.897,
 "dcmmeta_affine": [
  [
   -1.999775767326355,
   0.020942488685250282,
   0.021410301327705383,
   97.06842041015625
  ],
  [
   0.02189243584871292,
   1.997825264930725,
   0.09063538908958435,
   -87.27497863769531
  ],
  [
   0.020437955856323242,
   -0.09085959196090698,
   1.9978305101394653,
   -84.22418212890625
  ],
  [
   0.0,
   0.0,
   0.0,
   1.0
  ]
 ],
 "dcmmeta_reorient_transform": [
  [
   0.0,
   -1.0,
   0.0,
   99.0
  ],
  [
   1.0,
   0.0,
   0.0,
   0.0
  ],
  [
   0.0,
   0.0,
   1.0,
   0.0
  ],
  [
   0.0,
   0.0,
   0.0,
   1.0
  ]
 ],
 "dcmmeta_shape": [
  100,
  100,
  72,
  256
 ],
 "dcmmeta_slice_dim": 2,
 "dcmmeta_version": 0.6,
 "global": {
  "const": {
   "AcquisitionMatrix": [
    100,
    0,
    0,
    100
   ],
   "AngioFlag": "N",
   "BitsAllocated": 16,
   "BitsStored": 12,
   "BodyPartExamined": "BRAIN",
   "Columns": 900,
   "EchoNumbers": 1,
   "EchoTime": 34.0,
   "EchoTrainLength": 100,
   "FlipAngle": 90.0,
   "HighBit": 11,
   "ImageOrientationPatient": [
    0.99988787010732,
    -0.0109462182917,
    0.01021897829354,
    0.01047124398999,
    0.99891265219936,
    0.04542979556786
   ],
   "ImagePositionPatient": [
    -907.42901583322,
    -900.88287187676,
    -137.73830016178
   ],
   "ImageType": [
    "ORIGINAL",
    "PRIMARY",
    "M",
    "ND",
    "MOSAIC"
   ],
   "ImagedNucleus": "1H",
   "ImagingFrequency": 123.257802,
   "InPlanePhaseEncodingDirection": "COL",
   "MRAcquisitionType": "2D",
   "MagneticFieldStrength": 3.0,
   "Manufacturer": "SIEMENS",
   "ManufacturerModelName": "Prisma",
   "Modality": "MR",
   "NumberOfAverages": 1.0,
   "NumberOfPhaseEncodingSteps": 100,
   "PercentPhaseFieldOfView": 100.0,
   "PercentSampling": 100.0,
   "PerformedProcedureStepStartTime": "150445.485000",
   "PhotometricInterpretation": "MONOCHROME2",
   "PixelBandwidth": 2380.0,
   "PixelRepresentation": 0,
   "PixelSpacing": [
    2.0,
    2.0
   ],
   "ProtocolName": "bold_100x100_s3_2x2x2_static_256",
   "RepetitionTime": 2000.0,
   "Rows": 900,
   "SAR": 0.07109095885845,
   "SamplesPerPixel": 1,
   "ScanOptions": "FS",
   "ScanningSequence": "EP",
   "SequenceName": "*epfid2d1_100",
   "SequenceVariant": "SK",
   "SeriesDescription": "bold_100x100_s3_2x2x2_static_256",
   "SeriesNumber": 6,
   "SeriesTime": "153602.030000",
   "SliceLocation": -87.048789560308,
   "SliceThickness": 2.0,
   "SmallestImagePixelValue": 0,
   "SoftwareVersions": "syngo MR E11",
   "SpacingBetweenSlices": 1.9999999817312,
   "SpecificCharacterSet": "ISO_IR 100",
   "StudyID": "1",
   "StudyTime": "150445.397000",
   "TransmitCoilName": "Body",
   "VariableFlipAngleFlag": "N",
   "WindowCenterWidthExplanation": "Algo1",
   "dBdt": 0.0
  },
  "slices": {}
 },
 "time": {
  "samples": {
   "AcquisitionNumber": [
    1,
    2,
    3,
    4,
    5,
    6,
    7,
    8,
    9,
    10,
    11,
    12,
    13,
    14,
    15,
    16,
    17,
    18,
    19,
    20,
    21,
    22,
    23,
    24,
    25,
    26,
    27,
    28,
    29,
    30,
    31,
    32,
    33,
    34,
    35,
    36,
    37,
    38,
    39,
    40,
    41,
    42,
    43,
    44,
    45,
    46,
    47,
    48,
    49,
    50,
    51,
    52,
    53,
    54,
    55,
    56,
    57,
    58,
    59,
    60,
    61,
    62,
    63,
    64,
    65,
    66,
    67,
    68,
    69,
    70,
    71,
    72,
    73,
    74,
    75,
    76,
    77,
    78,
    79,
    80,
    81,
    82,
    83,
    84,
    85,
    86,
    87,
    88,
    89,
    90,
    91,
    92,
    93,
    94,
    95,
    96,
    97,
    98,
    99,
    100,
    101,
    102,
    103,
    104,
    105,
    106,
    107,
    108,
    109,
    110,
    111,
    112,
    113,
    114,
    115,
    116,
    117,
    118,
    119,
    120,
    121,
    122,
    123,
    124,
    125,
    126,
    127,
    128,
    129,
    130,
    131,
    132,
    133,
    134,
    135,
    136,
    137,
    138,
    139,
    140,
    141,
    142,
    143,
    144,
    145,
    146,
    147,
    148,
    149,
    150,
    151,
    152,
    153,
    154,
    155,
    156,
    157,
    158,
    159,
    160,
    161,
    162,
    163,
    164,
    165,
    166,
    167,
    168,
    169,
    170,
    171,
    172,
    173,
    174,
    175,
    176,
    177,
    178,
    179,
    180,
    181,
    182,
    183,
    184,
    185,
    186,
    187,
    188,
    189,
    190,
    191,
    192,
    193,
    194,
    195,
    196,
    197,
    198,
    199,
    200,
    201,
    202,
    203,
    204,
    205,
    206,
    207,
    208,
    209,
    210,
    211,
    212,
    213,
    214,
    215,
    216,
    217,
    218,
    219,
    220,
    221,
    222,
    223,
    224,
    225,
    226,
    227,
    228,
    229,
    230,
    231,
    232,
    233,
    234,
    235,
    236,
    237,
    238,
    239,
    240,
    241,
    242,
    243,
    244,
    245,
    246,
    247,
    248,
    249,
    250,
    251,
    252,
    253,
    254,
    255,
    256
   ],
   "AcquisitionTime": [
    "153559.447500",
    "153601.447500",
    "153603.447500",
    "153605.447500",
    "153607.447500",
    "153609.447500",
    "153611.447500",
    "153613.447500",
    "153615.447500",
    "153617.447500",
    "153619.447500",
    "153621.447500",
    "153623.447500",
    "153625.447500",
    "153627.447500",
    "153629.447500",
    "153631.447500",
    "153633.447500",
    "153635.447500",
    "153637.447500",
    "153639.447500",
    "153641.447500",
    "153643.447500",
    "153645.447500",
    "153647.447500",
    "153649.447500",
    "153651.447500",
    "153653.447500",
    "153655.447500",
    "153657.447500",
    "153659.447500",
    "153701.447500",
    "153703.447500",
    "153705.447500",
    "153707.447500",
    "153709.447500",
    "153711.447500",
    "153713.447500",
    "153715.447500",
    "153717.447500",
    "153719.447500",
    "153721.447500",
    "153723.447500",
    "153725.447500",
    "153727.447500",
    "153729.447500",
    "153731.447500",
    "153733.447500",
    "153735.447500",
    "153737.447500",
    "153739.447500",
    "153741.447500",
    "153743.447500",
    "153745.447500",
    "153747.447500",
    "153749.447500",
    "153751.447500",
    "153753.447500",
    "153755.447500",
    "153757.447500",
    "153759.447500",
    "153801.447500",
    "153803.447500",
    "153805.447500",
    "153807.447500",
    "153809.447500",
    "153811.447500",
    "153813.447500",
    "153815.447500",
    "153817.447500",
    "153819.447500",
    "153821.447500",
    "153823.447500",
    "153825.447500",
    "153827.447500",
    "153829.447500",
    "153831.447500",
    "153833.447500",
    "153835.447500",
    "153837.447500",
    "153839.447500",
    "153841.447500",
    "153843.447500",
    "153845.447500",
    "153847.447500",
    "153849.447500",
    "153851.447500",
    "153853.447500",
    "153855.447500",
    "153857.447500",
    "153859.447500",
    "153901.447500",
    "153903.447500",
    "153905.447500",
    "153907.447500",
    "153909.447500",
    "153911.447500",
    "153913.447500",
    "153915.447500",
    "153917.447500",
    "153919.447500",
    "153921.447500",
    "153923.447500",
    "153925.447500",
    "153927.447500",
    "153929.447500",
    "153931.447500",
    "153933.447500",
    "153935.447500",
    "153937.447500",
    "153939.447500",
    "153941.447500",
    "153943.447500",
    "153945.447500",
    "153947.447500",
    "153949.447500",
    "153951.447500",
    "153953.447500",
    "153955.447500",
    "153957.447500",
    "153959.447500",
    "154001.447500",
    "154003.447500",
    "154005.447500",
    "154007.447500",
    "154009.447500",
    "154011.447500",
    "154013.447500",
    "154015.447500",
    "154017.447500",
    "154019.447500",
    "154021.447500",
    "154023.447500",
    "154025.447500",
    "154027.447500",
    "154029.447500",
    "154031.447500",
    "154033.447500",
    "154035.447500",
    "154037.447500",
    "154039.447500",
    "154041.447500",
    "154043.447500",
    "154045.447500",
    "154047.447500",
    "154049.447500",
    "154051.447500",
    "154053.447500",
    "154055.447500",
    "154057.447500",
    "154059.447500",
    "154101.447500",
    "154103.447500",
    "154105.447500",
    "154107.447500",
    "154109.447500",
    "154111.447500",
    "154113.447500",
    "154115.447500",
    "154117.447500",
    "154119.447500",
    "154121.447500",
    "154123.447500",
    "154125.447500",
    "154127.447500",
    "154129.447500",
    "154131.447500",
    "154133.447500",
    "154135.447500",
    "154137.447500",
    "154139.447500",
    "154141.447500",
    "154143.447500",
    "154145.447500",
    "154147.447500",
    "154149.447500",
    "154151.447500",
    "154153.447500",
    "154155.447500",
    "154157.447500",
    "154159.447500",
    "154201.447500",
    "154203.447500",
    "154205.447500",
    "154207.447500",
    "154209.447500",
    "154211.447500",
    "154213.447500",
    "154215.447500",
    "154217.447500",
    "154219.447500",
    "154221.447500",
    "154223.447500",
    "154225.447500",
    "154227.447500",
    "154229.447500",
    "154231.447500",
    "154233.447500",
    "154235.447500",
    "154237.447500",
    "154239.447500",
    "154241.447500",
    "154243.447500",
    "154245.447500",
    "154247.447500",
    "154249.447500",
    "154251.447500",
    "154253.447500",
    "154255.447500",
    "154257.447500",
    "154259.447500",
    "154301.447500",
    "154303.447500",
    "154305.447500",
    "154307.447500",
    "154309.447500",
    "154311.447500",
    "154313.447500",
    "154315.447500",
    "154317.447500",
    "154319.447500",
    "154321.447500",
    "154323.447500",
    "154325.447500",
    "154327.447500",
    "154329.447500",
    "154331.447500",
    "154333.447500",
    "154335.447500",
    "154337.447500",
    "154339.447500",
    "154341.447500",
    "154343.447500",
    "154345.447500",
    "154347.447500",
    "154349.447500",
    "154351.447500",
    "154353.447500",
    "154355.447500",
    "154357.447500",
    "154359.447500",
    "154401.447500",
    "154403.447500",
    "154405.447500",
    "154407.447500",
    "154409.447500",
    "154411.447500",
    "154413.447500",
    "154415.447500",
    "154417.447500",
    "154419.447500",
    "154421.447500",
    "154423.447500",
    "154425.447500",
    "154427.447500",
    "154429.447500"
   ],
   "ContentTime": [
    "153602.034000",
    "153603.029000",
    "153605.029000",
    "153607.528000",
    "153609.028000",
    "153611.029000",
    "153613.530000",
    "153615.529000",
    "153617.529000",
    "153619.029000",
    "153621.528000",
    "153623.529000",
    "153625.529000",
    "153627.028000",
    "153629.529000",
    "153631.529000",
    "153633.530000",
    "153635.029000",
    "153637.529000",
    "153639.529000",
    "153641.028000",
    "153643.529000",
    "153645.529000",
    "153647.029000",
    "153649.030000",
    "153651.029000",
    "153653.529000",
    "153655.529000",
    "153657.529000",
    "153659.528000",
    "153701.028000",
    "153703.530000",
    "153705.030000",
    "153707.030000",
    "153709.029000",
    "153711.030000",
    "153713.530000",
    "153715.528000",
    "153717.528000",
    "153719.529000",
    "153721.030000",
    "153723.030000",
    "153725.530000",
    "153727.030000",
    "153729.030000",
    "153731.030000",
    "153733.028000",
    "153735.529000",
    "153737.029000",
    "153739.530000",
    "153741.029000",
    "153743.030000",
    "153745.029000",
    "153747.030000",
    "153749.528000",
    "153751.528000",
    "153753.028000",
    "153755.029000",
    "153757.529000",
    "153759.529000",
    "153801.029000",
    "153803.030000",
    "153805.029000",
    "153807.028000",
    "153809.029000",
    "153811.028000",
    "153813.029000",
    "153815.030000",
    "153817.530000",
    "153819.530000",
    "153821.029000",
    "153823.529000",
    "153825.028000",
    "153827.528000",
    "153829.529000",
    "153831.530000",
    "153833.530000",
    "153835.529000",
    "153837.030000",
    "153839.529000",
    "153841.529000",
    "153843.028000",
    "153845.028000",
    "153847.028000",
    "153849.030000",
    "153851.029000",
    "153853.029000",
    "153855.030000",
    "153857.529000",
    "153859.528000",
    "153901.029000",
    "153903.529000",
    "153905.029000",
    "153907.030000",
    "153909.029000",
    "153911.529000",
    "153913.030000",
    "153915.529000",
    "153917.028000",
    "153919.529000",
    "153921.029000",
    "153923.029000",
    "153925.029000",
    "153927.530000",
    "153929.030000",
    "153931.529000",
    "153933.530000",
    "153935.529000",
    "153937.029000",
    "153939.029000",
    "153941.529000",
    "153943.529000",
    "153945.530000",
    "153947.029000",
    "153949.530000",
    "153951.029000",
    "153953.029000",
    "153955.529000",
    "153957.528000",
    "153959.529000",
    "154001.530000",
    "154003.530000",
    "154005.030000",
    "154007.530000",
    "154009.029000",
    "154011.028000",
    "154013.028000",
    "154015.528000",
    "154017.029000",
    "154019.529000",
    "154021.529000",
    "154023.530000",
    "154025.543000",
    "154027.028000",
    "154029.528000",
    "154031.029000",
    "154033.529000",
    "154035.530000",
    "154037.530000",
    "154039.029000",
    "154041.030000",
    "154043.030000",
    "154045.028000",
    "154047.028000",
    "154049.528000",
    "154051.030000",
    "154053.029000",
    "154055.529000",
    "154057.029000",
    "154059.529000",
    "154101.030000",
    "154103.529000",
    "154105.028000",
    "154107.528000",
    "154109.530000",
    "154111.029000",
    "154113.529000",
    "154115.530000",
    "154117.530000",
    "154119.028000",
    "154121.528000",
    "154123.028000",
    "154125.028000",
    "154127.530000",
    "154129.529000",
    "154131.529000",
    "154133.029000",
    "154135.529000",
    "154137.529000",
    "154139.528000",
    "154141.029000",
    "154143.529000",
    "154145.030000",
    "154147.029000",
    "154149.029000",
    "154151.030000",
    "154153.029000",
    "154155.529000",
    "154157.528000",
    "154159.529000",
    "154201.529000",
    "154203.030000",
    "154205.029000",
    "154207.529000",
    "154209.029000",
    "154211.529000",
    "154213.028000",
    "154215.529000",
    "154217.529000",
    "154219.530000",
    "154221.530000",
    "154223.030000",
    "154225.530000",
    "154227.030000",
    "154229.029000",
    "154231.528000",
    "154233.529000",
    "154235.028000",
    "154237.030000",
    "154239.030000",
    "154241.029000",
    "154243.029000",
    "154245.530000",
    "154247.529000",
    "154249.529000",
    "154251.529000",
    "154253.529000",
    "154255.530000",
    "154257.530000",
    "154259.530000",
    "154301.030000",
    "154303.029000",
    "154305.529000",
    "154307.529000",
    "154309.528000",
    "154311.030000",
    "154313.030000",
    "154315.529000",
    "154317.530000",
    "154319.529000",
    "154321.030000",
    "154323.529000",
    "154325.529000",
    "154327.028000",
    "154329.530000",
    "154331.029000",
    "154333.530000",
    "154335.030000",
    "154337.029000",
    "154339.529000",
    "154341.028000",
    "154343.529000",
    "154345.529000",
    "154347.029000",
    "154349.030000",
    "154351.029000",
    "154353.530000",
    "154355.530000",
    "154357.028000",
    "154359.528000",
    "154401.028000",
    "154403.029000",
    "154405.530000",
    "154407.029000",
    "154409.029000",
    "154411.029000",
    "154413.029000",
    "154415.028000",
    "154417.529000",
    "154419.028000",
    "154421.530000",
    "154423.530000",
    "154425.529000",
    "154427.530000",
    "154429.029000",
    "154431.029000"
   ],
   "InstanceCreationTime": [
    "153602.034000",
    "153603.029000",
    "153605.029000",
    "153607.528000",
    "153609.028000",
    "153611.029000",
    "153613.530000",
    "153615.529000",
    "153617.529000",
    "153619.029000",
    "153621.528000",
    "153623.529000",
    "153625.529000",
    "153627.028000",
    "153629.529000",
    "153631.529000",
    "153633.530000",
    "153635.029000",
    "153637.529000",
    "153639.529000",
    "153641.028000",
    "153643.529000",
    "153645.529000",
    "153647.029000",
    "153649.030000",
    "153651.029000",
    "153653.529000",
    "153655.529000",
    "153657.529000",
    "153659.528000",
    "153701.028000",
    "153703.530000",
    "153705.030000",
    "153707.030000",
    "153709.029000",
    "153711.030000",
    "153713.530000",
    "153715.528000",
    "153717.528000",
    "153719.529000",
    "153721.030000",
    "153723.030000",
    "153725.530000",
    "153727.030000",
    "153729.030000",
    "153731.030000",
    "153733.028000",
    "153735.529000",
    "153737.029000",
    "153739.530000",
    "153741.029000",
    "153743.030000",
    "153745.029000",
    "153747.030000",
    "153749.528000",
    "153751.528000",
    "153753.028000",
    "153755.029000",
    "153757.529000",
    "153759.529000",
    "153801.029000",
    "153803.030000",
    "153805.029000",
    "153807.028000",
    "153809.029000",
    "153811.028000",
    "153813.029000",
    "153815.030000",
    "153817.530000",
    "153819.530000",
    "153821.029000",
    "153823.529000",
    "153825.028000",
    "153827.528000",
    "153829.529000",
    "153831.530000",
    "153833.530000",
    "153835.529000",
    "153837.030000",
    "153839.529000",
    "153841.529000",
    "153843.028000",
    "153845.028000",
    "153847.028000",
    "153849.030000",
    "153851.029000",
    "153853.029000",
    "153855.030000",
    "153857.529000",
    "153859.528000",
    "153901.029000",
    "153903.529000",
    "153905.029000",
    "153907.030000",
    "153909.029000",
    "153911.529000",
    "153913.030000",
    "153915.529000",
    "153917.028000",
    "153919.529000",
    "153921.029000",
    "153923.029000",
    "153925.029000",
    "153927.530000",
    "153929.030000",
    "153931.529000",
    "153933.530000",
    "153935.529000",
    "153937.029000",
    "153939.029000",
    "153941.529000",
    "153943.529000",
    "153945.530000",
    "153947.029000",
    "153949.530000",
    "153951.029000",
    "153953.029000",
    "153955.529000",
    "153957.528000",
    "153959.529000",
    "154001.530000",
    "154003.530000",
    "154005.030000",
    "154007.530000",
    "154009.029000",
    "154011.028000",
    "154013.028000",
    "154015.528000",
    "154017.029000",
    "154019.529000",
    "154021.529000",
    "154023.530000",
    "154025.543000",
    "154027.028000",
    "154029.528000",
    "154031.029000",
    "154033.529000",
    "154035.530000",
    "154037.530000",
    "154039.029000",
    "154041.030000",
    "154043.030000",
    "154045.028000",
    "154047.028000",
    "154049.528000",
    "154051.030000",
    "154053.029000",
    "154055.529000",
    "154057.029000",
    "154059.529000",
    "154101.030000",
    "154103.529000",
    "154105.028000",
    "154107.528000",
    "154109.530000",
    "154111.029000",
    "154113.529000",
    "154115.530000",
    "154117.530000",
    "154119.028000",
    "154121.528000",
    "154123.028000",
    "154125.028000",
    "154127.530000",
    "154129.529000",
    "154131.529000",
    "154133.029000",
    "154135.529000",
    "154137.529000",
    "154139.528000",
    "154141.029000",
    "154143.529000",
    "154145.030000",
    "154147.029000",
    "154149.029000",
    "154151.030000",
    "154153.029000",
    "154155.529000",
    "154157.528000",
    "154159.529000",
    "154201.529000",
    "154203.030000",
    "154205.029000",
    "154207.529000",
    "154209.029000",
    "154211.529000",
    "154213.028000",
    "154215.529000",
    "154217.529000",
    "154219.530000",
    "154221.530000",
    "154223.030000",
    "154225.530000",
    "154227.030000",
    "154229.029000",
    "154231.528000",
    "154233.529000",
    "154235.028000",
    "154237.030000",
    "154239.030000",
    "154241.029000",
    "154243.029000",
    "154245.530000",
    "154247.529000",
    "154249.529000",
    "154251.529000",
    "154253.529000",
    "154255.530000",
    "154257.530000",
    "154259.530000",
    "154301.030000",
    "154303.029000",
    "154305.529000",
    "154307.529000",
    "154309.528000",
    "154311.030000",
    "154313.030000",
    "154315.529000",
    "154317.530000",
    "154319.529000",
    "154321.030000",
    "154323.529000",
    "154325.529000",
    "154327.028000",
    "154329.530000",
    "154331.029000",
    "154333.530000",
    "154335.030000",
    "154337.029000",
    "154339.529000",
    "154341.028000",
    "154343.529000",
    "154345.529000",
    "154347.029000",
    "154349.030000",
    "154351.029000",
    "154353.530000",
    "154355.530000",
    "154357.028000",
    "154359.528000",
    "154401.028000",
    "154403.029000",
    "154405.530000",
    "154407.029000",
    "154409.029000",
    "154411.029000",
    "154413.029000",
    "154415.028000",
    "154417.529000",
    "154419.028000",
    "154421.530000",
    "154423.530000",
    "154425.529000",
    "154427.530000",
    "154429.029000",
    "154431.029000"
   ],
   "InstanceNumber": [
    1,
    2,
    3,
    4,
    5,
    6,
    7,
    8,
    9,
    10,
    11,
    12,
    13,
    14,
    15,
    16,
    17,
    18,
    19,
    20,
    21,
    22,
    23,
    24,
    25,
    26,
    27,
    28,
    29,
    30,
    31,
    32,
    33,
    34,
    35,
    36,
    37,
    38,
    39,
    40,
    41,
    42,
    43,
    44,
    45,
    46,
    47,
    48,
    49,
    50,
    51,
    52,
    53,
    54,
    55,
    56,
    57,
    58,
    59,
    60,
    61,
    62,
    63,
    64,
    65,
    66,
    67,
    68,
    69,
    70,
    71,
    72,
    73,
    74,
    75,
    76,
    77,
    78,
    79,
    80,
    81,
    82,
    83,
    84,
    85,
    86,
    87,
    88,
    89,
    90,
    91,
    92,
    93,
    94,
    95,
    96,
    97,
    98,
    99,
    100,
    101,
    102,
    103,
    104,
    105,
    106,
    107,
    108,
    109,
    110,
    111,
    112,
    113,
    114,
    115,
    116,
    117,
    118,
    119,
    120,
    121,
    122,
    123,
    124,
    125,
    126,
    127,
    128,
    129,
    130,
    131,
    132,
    133,
    134,
    135,
    136,
    137,
    138,
    139,
    140,
    141,
    142,
    143,
    144,
    145,
    146,
    147,
    148,
    149,
    150,
    151,
    152,
    153,
    154,
    155,
    156,
    157,
    158,
    159,
    160,
    161,
    162,
    163,
    164,
    165,
    166,
    167,
    168,
    169,
    170,
    171,
    172,
    173,
    174,
    175,
    176,
    177,
    178,
    179,
    180,
    181,
    182,
    183,
    184,
    185,
    186,
    187,
    188,
    189,
    190,
    191,
    192,
    193,
    194,
    195,
    196,
    197,
    198,
    199,
    200,
    201,
    202,
    203,
    204,
    205,
    206,
    207,
    208,
    209,
    210,
    211,
    212,
    213,
    214,
    215,
    216,
    217,
    218,
    219,
    220,
    221,
    222,
    223,
    224,
    225,
    226,
    227,
    228,
    229,
    230,
    231,
    232,
    233,
    234,
    235,
    236,
    237,
    238,
    239,
    240,
    241,
    242,
    243,
    244,
    245,
    246,
    247,
    248,
    249,
    250,
    251,
    252,
    253,
    254,
    255,
    256
   ],
   "LargestImagePixelValue": [
    2417,
    2399,
    2374,
    2578,
    2402,
    2477,
    2412,
    2396,
    2355,
    2570,
    2359,
    2666,
    2279,
    2628,
    2352,
    2390,
    2407,
    2915,
    2578,
    2462,
    2428,
    2389,
    2213,
    2715,
    2266,
    2686,
    2309,
    2624,
    2352,
    2632,
    2504,
    2561,
    2312,
    2609,
    2240,
    2518,
    2289,
    2517,
    2346,
    2709,
    2332,
    2565,
    2399,
    2396,
    2222,
    2531,
    2266,
    2627,
    2435,
    2370,
    2370,
    2864,
    2650,
    2471,
    2387,
    2447,
    2353,
    2619,
    2436,
    2333,
    2361,
    2559,
    2357,
    2416,
    2367,
    2715,
    2416,
    2298,
    2227,
    2662,
    2299,
    2598,
    2307,
    2605,
    2478,
    2260,
    2443,
    2425,
    2362,
    2416,
    2514,
    2479,
    2240,
    2688,
    2476,
    2414,
    2391,
    2446,
    2416,
    2414,
    2425,
    2360,
    2424,
    2395,
    2230,
    2920,
    2422,
    2384,
    2376,
    2372,
    2381,
    2384,
    2426,
    2348,
    2322,
    2368,
    2326,
    2387,
    2354,
    2351,
    2369,
    2330,
    2358,
    2371,
    2313,
    2401,
    2491,
    2219,
    2719,
    2452,
    2447,
    2336,
    2549,
    2435,
    2366,
    2440,
    2390,
    2390,
    2546,
    2464,
    2397,
    2504,
    2289,
    2783,
    2519,
    2338,
    2441,
    2502,
    2408,
    2369,
    2504,
    2423,
    2505,
    2242,
    2416,
    2220,
    2502,
    2378,
    2521,
    2238,
    2656,
    2432,
    2439,
    2346,
    2365,
    2591,
    2392,
    2376,
    2410,
    2329,
    2323,
    2355,
    2369,
    2378,
    2423,
    2747,
    2334,
    2451,
    2461,
    2369,
    2546,
    2471,
    2558,
    2199,
    2432,
    2361,
    2531,
    2432,
    2328,
    2577,
    2489,
    2343,
    2427,
    2341,
    2324,
    2297,
    2377,
    2323,
    2673,
    2262,
    2395,
    2311,
    2240,
    2214,
    2539,
    2320,
    2547,
    2322,
    2274,
    2315,
    2491,
    2273,
    2541,
    2310,
    2546,
    2361,
    2408,
    2495,
    2494,
    2367,
    2379,
    2346,
    2187,
    2248,
    2340,
    2714,
    2359,
    2688,
    2307,
    2308,
    2567,
    2225,
    2422,
    2371,
    2555,
    2290,
    2591,
    2358,
    2258,
    2326,
    2313,
    2319,
    2402,
    2397,
    2310,
    2347,
    2223,
    2576,
    2423,
    2350,
    2190,
    2265,
    2287,
    2375,
    2447,
    2279,
    2260,
    2326,
    2315,
    2326,
    2246,
    2317,
    2464,
    2409,
    2400,
    2176
   ],
   "WindowCenter": [
    718.0,
    716.0,
    715.0,
    717.0,
    715.0,
    716.0,
    716.0,
    717.0,
    717.0,
    718.0,
    714.0,
    718.0,
    713.0,
    718.0,
    715.0,
    715.0,
    715.0,
    721.0,
    718.0,
    716.0,
    715.0,
    714.0,
    712.0,
    718.0,
    713.0,
    718.0,
    713.0,
    717.0,
    714.0,
    718.0,
    717.0,
    716.0,
    712.0,
    716.0,
    712.0,
    716.0,
    713.0,
    716.0,
    714.0,
    719.0,
    714.0,
    716.0,
    713.0,
    714.0,
    713.0,
    718.0,
    713.0,
    717.0,
    716.0,
    715.0,
    715.0,
    719.0,
    717.0,
    715.0,
    713.0,
    714.0,
    714.0,
    717.0,
    715.0,
    713.0,
    714.0,
    717.0,
    714.0,
    713.0,
    712.0,
    716.0,
    714.0,
    712.0,
    711.0,
    718.0,
    713.0,
    717.0,
    712.0,
    716.0,
    715.0,
    712.0,
    716.0,
    716.0,
    715.0,
    715.0,
    716.0,
    716.0,
    712.0,
    717.0,
    716.0,
    715.0,
    715.0,
    715.0,
    715.0,
    716.0,
    715.0,
    714.0,
    714.0,
    714.0,
    712.0,
    720.0,
    715.0,
    714.0,
    715.0,
    714.0,
    713.0,
    713.0,
    715.0,
    714.0,
    713.0,
    712.0,
    712.0,
    713.0,
    713.0,
    714.0,
