{
  "AcquisitionMatrixPE": 100,
  "AcquisitionNumber": 1,
  "AcquisitionTime": "15:45:23.012500",
  "BandwidthPerPixelPhaseEncode": 18.519,
  "BaseResolution": 100,
  "BodyPartExamined": "BRAIN",
  "ConsistencyInfo": "N4_VE11C_LATEST_20160120",
  "ConversionSoftware": "dcm2niix",
  "ConversionSoftwareVersion": "v1.0.20180622 GCC4.9.2",
  "DerivedVendorReportedEchoSpacing": 0.000539986,
  "DeviceSerialNumber": "166078",
  "DwellTime": 2.1e-06,
  "EchoTime": 0.034,
  "EchoTrainLength": 100,
  "EffectiveEchoSpacing": 0.000539986,
  "FlipAngle": 90,
  "ImageOrientationPatientDICOM": [0.999888, -0.0109462, 0.010219, 0.0104712, 0.998913, 0.0454298],
  "ImageType": [
    "ORIGINAL",
    "PRIMARY",
    "M",
    "ND",
    "MOSAIC"
],
  "InPlanePhaseEncodingDirectionDICOM": "COL",
  "InstitutionAddress": "Street_StreetNo_Bei_Jing_District_CN_ZIP",
  "InstitutionName": "BeiJing_Normal_University",
  "InstitutionalDepartmentName": "Department",
  "MRAcquisitionType": "2D",
  "MagneticFieldStrength": 3,
  "Manufacturer": "Siemens",
  "ManufacturersModelName": "Prisma",
  "Modality": "MR",
  "MultibandAccelerationFactor": 3,
  "PartialFourier": 1,
  "PatientPosition": "HFS",
  "PercentPhaseFOV": 100,
  "PhaseEncodingDirection": "j-",
  "PhaseEncodingSteps": 100,
  "PhaseResolution": 1,
  "PixelBandwidth": 2380,
  "ProcedureStepDescription": "BNU_P2018_64CH_Zhen.ZongLei",
  "ProtocolName": "bold_100x100_s3_2x2x2_static_256",
  "PulseSequenceDetails": "%SiemensSeq%_ep2d_bold",
  "ReceiveCoilActiveElements": "HC1-7;NC1",
  "ReceiveCoilName": "HeadNeck_64",
  "ReconMatrixPE": 100,
  "RepetitionTime": 2,
  "SAR": 0.071091,
  "ScanOptions": "FS",
  "ScanningSequence": "EP",
  "SequenceName": "_epfid2d1_100",
  "SequenceVariant": "SK",
  "SeriesDescription": "bold_100x100_s3_2x2x2_static_256",
  "SeriesNumber": 7,
  "ShimSetting": [-5459, -11492, -1340, 505, 5, -254, 1, 68],
  "SliceThickness": 2,
  "SliceTiming": [1.485, 0, 0.99, 0.0825, 1.0725, 0.165, 1.155, 0.2475, 1.2375, 0.33, 1.32, 0.4125, 1.4025, 0.5775, 1.5675, 0.66, 1.65, 0.7425, 1.7325, 0.825, 1.815, 0.9075, 1.8975, 0.495, 1.485, 0, 0.99, 0.0825, 1.0725, 0.165, 1.155, 0.2475, 1.2375, 0.33, 1.32, 0.4125, 1.4025, 0.5775, 1.5675, 0.66, 1.65, 0.7425, 1.7325, 0.825, 1.815, 0.9075, 1.8975, 0.495, 1.485, 0, 0.99, 0.0825, 1.0725, 0.165, 1.155, 0.2475, 1.2375, 0.33, 1.32, 0.4125, 1.4025, 0.5775, 1.5675, 0.66, 1.65, 0.7425, 1.7325, 0.825, 1.815, 0.9075, 1.8975, 0.495],
  "SoftwareVersions": "syngo_MR_E11",
  "SpacingBetweenSlices": 2,
  "StationName": "AWP166078",
  "TaskName": "naturalvision",
  "TotalReadoutTime": 0.0534586,
  "TxRefAmp": 211.897,
  "dcmmeta_affine": [
    [-1.999775767326355, 0.020942488685250282, 0.021410301327705383, 97.06842041015625],
    [0.02189243584871292, 1.997825264930725, 0.09063538908958435, -87.27497863769531],
    [0.020437955856323242, -0.09085959196090698, 1.9978305101394653, -84.22418212890625],
    [0.0, 0.0, 0.0, 1.0]
],
  "dcmmeta_reorient_transform": [
    [0.0, -1.0, 0.0, 99.0],
    [1.0, 0.0, 0.0, 0.0],
    [0.0, 0.0, 1.0, 0.0],
    [0.0, 0.0, 0.0, 1.0]
],
  "dcmmeta_shape": [100, 100, 72, 256],
  "dcmmeta_slice_dim": 2,
  "dcmmeta_version": 0.6,
  "global": {
    "const": {
      "AcquisitionMatrix": [100, 0, 0, 100],
      "AngioFlag": "N",
      "BitsAllocated": 16,
      "BitsStored": 12,
      "BodyPartExamined": "BRAIN",
      "Columns": 900,
      "EchoNumbers": 1,
      "EchoTime": 34.0,
      "EchoTrainLength": 100,
      "FlipAngle": 90.0,
      "HighBit": 11,
      "ImageOrientationPatient": [0.99988787010732, -0.0109462182917, 0.01021897829354, 0.01047124398999, 0.99891265219936, 0.04542979556786],
      "ImagePositionPatient": [-907.42901583322, -900.88287187676, -137.73830016178],
      "ImageType": [
        "ORIGINAL",
        "PRIMARY",
        "M",
        "ND",
        "MOSAIC"
],
      "ImagedNucleus": "1H",
      "ImagingFrequency": 123.257804,
      "InPlanePhaseEncodingDirection": "COL",
      "MRAcquisitionType": "2D",
      "MagneticFieldStrength": 3.0,
      "Manufacturer": "SIEMENS",
      "ManufacturerModelName": "Prisma",
      "Modality": "MR",
      "NumberOfAverages": 1.0,
      "NumberOfPhaseEncodingSteps": 100,
      "PercentPhaseFieldOfView": 100.0,
      "PercentSampling": 100.0,
      "PerformedProcedureStepStartTime": "150445.485000",
      "PhotometricInterpretation": "MONOCHROME2",
      "PixelBandwidth": 2380.0,
      "PixelRepresentation": 0,
      "PixelSpacing": [2.0, 2.0],
      "ProtocolName": "bold_100x100_s3_2x2x2_static_256",
      "RepetitionTime": 2000.0,
      "Rows": 900,
      "SAR": 0.07109095885845,
      "SamplesPerPixel": 1,
      "ScanOptions": "FS",
      "ScanningSequence": "EP",
      "SequenceName": "*epfid2d1_100",
      "SequenceVariant": "SK",
      "SeriesDescription": "bold_100x100_s3_2x2x2_static_256",
      "SeriesNumber": 7,
      "SeriesTime": "154526.286000",
      "SliceLocation": -87.048789560308,
      "SliceThickness": 2.0,
      "SmallestImagePixelValue": 0,
      "SoftwareVersions": "syngo MR E11",
      "SpacingBetweenSlices": 1.9999999817312,
      "SpecificCharacterSet": "ISO_IR 100",
      "StudyID": "1",
      "StudyTime": "150445.397000",
      "TransmitCoilName": "Body",
      "VariableFlipAngleFlag": "N",
      "WindowCenterWidthExplanation": "Algo1",
      "dBdt": 0.0},
    "slices": {}
  },
  "time": {
    "samples": {
      "AcquisitionNumber": [1, 2, 3, 4, 5, 6, 7, 8, 9, 10, 11, 12, 13, 14, 15, 16, 17, 18, 19, 20, 21, 22, 23, 24, 25, 26, 27, 28, 29, 30, 31, 32, 33, 34, 35, 36, 37, 38, 39, 40, 41, 42, 43, 44, 45, 46, 47, 48, 49, 50, 51, 52, 53, 54, 55, 56, 57, 58, 59, 60, 61, 62, 63, 64, 65, 66, 67, 68, 69, 70, 71, 72, 73, 74, 75, 76, 77, 78, 79, 80, 81, 82, 83, 84, 85, 86, 87, 88, 89, 90, 91, 92, 93, 94, 95, 96, 97, 98, 99, 100, 101, 102, 103, 104, 105, 106, 107, 108, 109, 110, 111, 112, 113, 114, 115, 116, 117, 118, 119, 120, 121, 122, 123, 124, 125, 126, 127, 128, 129, 130, 131, 132, 133, 134, 135, 136, 137, 138, 139, 140, 141, 142, 143, 144, 145, 146, 147, 148, 149, 150, 151, 152, 153, 154, 155, 156, 157, 158, 159, 160, 161, 162, 163, 164, 165, 166, 167, 168, 169, 170, 171, 172, 173, 174, 175, 176, 177, 178, 179, 180, 181, 182, 183, 184, 185, 186, 187, 188, 189, 190, 191, 192, 193, 194, 195, 196, 197, 198, 199, 200, 201, 202, 203, 204, 205, 206, 207, 208, 209, 210, 211, 212, 213, 214, 215, 216, 217, 218, 219, 220, 221, 222, 223, 224, 225, 226, 227, 228, 229, 230, 231, 232, 233, 234, 235, 236, 237, 238, 239, 240, 241, 242, 243, 244, 245, 246, 247, 248, 249, 250, 251, 252, 253, 254, 255, 256],
      "AcquisitionTime": ["154523.012500", "154525.012500", "154527.012500", "154529.012500", "154531.012500", "154533.012500", "154535.012500", "154537.012500", "154539.012500", "154541.012500", "154543.012500", "154545.012500", "154547.012500", "154549.012500", "154551.012500", "154553.012500", "154555.012500", "154557.012500", "154559.012500", "154601.012500", "154603.012500", "154605.012500", "154607.012500", "154609.012500", "154611.012500", "154613.012500", "154615.012500", "154617.012500", "154619.012500", "154621.012500", "154623.012500", "154625.012500", "154627.012500", "154629.012500", "154631.012500", "154633.012500", "154635.012500", "154637.012500", "154639.012500", "154641.012500", "154643.012500", "154645.012500", "154647.012500", "154649.012500", "154651.012500", "154653.012500", "154655.012500", "154657.012500", "154659.012500", "154701.012500", "154703.012500", "154705.012500", "154707.012500", "154709.012500", "154711.012500", "154713.012500", "154715.012500", "154717.012500", "154719.012500", "154721.012500", "154723.012500", "154725.012500", "154727.012500", "154729.012500", "154731.012500", "154733.012500", "154735.012500", "154737.012500", "154739.012500", "154741.012500", "154743.012500", "154745.012500", "154747.012500", "154749.012500", "154751.012500", "154753.012500", "154755.012500", "154757.012500", "154759.012500", "154801.012500", "154803.012500", "154805.012500", "154807.012500", "154809.012500", "154811.012500", "154813.012500", "154815.012500", "154817.012500", "154819.012500", "154821.012500", "154823.012500", "154825.012500", "154827.012500", "154829.012500", "154831.012500", "154833.012500", "154835.012500", "154837.012500", "154839.012500", "154841.012500", "154843.012500", "154845.012500", "154847.012500", "154849.012500", "154851.012500", "154853.012500", "154855.012500", "154857.012500", "154859.012500", "154901.012500", "154903.012500", "154905.012500", "154907.012500", "154909.012500", "154911.012500", "154913.012500", "154915.012500", "154917.012500", "154919.012500", "154921.012500", "154923.012500", "154925.012500", "154927.012500", "154929.012500", "154931.012500", "154933.012500", "154935.012500", "154937.012500", "154939.012500", "154941.012500", "154943.012500", "154945.012500", "154947.012500", "154949.012500", "154951.012500", "154953.012500", "154955.012500", "154957.012500", "154959.012500", "155001.012500", "155003.012500", "155005.012500", "155007.012500", "155009.012500", "155011.012500", "155013.012500", "155015.012500", "155017.012500", "155019.012500", "155021.012500", "155023.012500", "155025.012500", "155027.012500", "155029.012500", "155031.012500", "155033.012500", "155035.012500", "155037.012500", "155039.012500", "155041.012500", "155043.012500", "155045.012500", "155047.012500", "155049.012500", "155051.012500", "155053.012500", "155055.012500", "155057.012500", "155059.012500", "155101.012500", "155103.012500", "155105.012500", "155107.012500", "155109.012500", "155111.012500", "155113.012500", "155115.012500", "155117.012500", "155119.012500", "155121.012500", "155123.012500", "155125.012500", "155127.012500", "155129.012500", "155131.012500", "155133.012500", "155135.012500", "155137.012500", "155139.012500", "155141.012500", "155143.012500", "155145.012500", "155147.012500", "155149.012500", "155151.012500", "155153.012500", "155155.012500", "155157.012500", "155159.012500", "155201.012500", "155203.012500", "155205.012500", "155207.012500", "155209.012500", "155211.012500", "155213.012500", "155215.012500", "155217.012500", "155219.012500", "155221.012500", "155223.012500", "155225.012500", "155227.012500", "155229.012500", "155231.012500", "155233.012500", "155235.012500", "155237.012500", "155239.012500", "155241.012500", "155243.012500", "155245.012500", "155247.012500", "155249.012500", "155251.012500", "155253.012500", "155255.012500", "155257.012500", "155259.012500", "155301.012500", "155303.012500", "155305.012500", "155307.012500", "155309.012500", "155311.012500", "155313.012500", "155315.012500", "155317.012500", "155319.012500", "155321.012500", "155323.012500", "155325.012500", "155327.012500", "155329.012500", "155331.012500", "155333.012500", "155335.012500", "155337.012500", "155339.012500", "155341.012500", "155343.012500", "155345.012500", "155347.012500", "155349.012500", "155351.012500", "155353.012500"],
      "ContentTime": ["154526.290000", "154527.785000", "154529.785000", "154531.786000", "154533.786000", "154535.786000", "154537.287000", "154539.286000", "154541.786000", "154543.785000", "154545.786000", "154547.786000", "154549.786000", "154551.786000", "154553.286000", "154555.787000", "154557.287000", "154559.286000", "154601.785000", "154603.786000", "154605.787000", "154607.286000", "154609.786000", "154611.787000", "154613.787000", "154615.786000", "154617.285000", "154619.286000", "154621.785000", "154623.787000", "154625.787000", "154627.787000", "154629.786000", "154631.787000", "154633.287000", "154635.785000", "154637.786000", "154639.786000", "154641.787000", "154643.786000", "154645.787000", "154647.786000", "154649.786000", "154651.786000", "154653.785000", "154655.785000", "154657.785000", "154659.786000", "154701.787000", "154703.787000", "154705.286000", "154707.287000", "154709.785000", "154711.786000", "154713.786000", "154715.285000", "154717.786000", "154719.286000", "154721.786000", "154723.786000", "154725.287000", "154727.785000", "154729.285000", "154731.785000", "154733.786000", "154735.286000", "154737.786000", "154739.786000", "154741.786000", "154743.786000", "154745.786000", "154747.286000", "154749.785000", "154751.786000", "154753.787000", "154755.786000", "154757.787000", "154759.286000", "154801.786000", "154803.286000", "154805.786000", "154807.785000", "154809.786000", "154811.786000", "154813.786000", "154815.287000", "154817.286000", "154819.286000", "154821.785000", "154823.785000", "154825.285000", "154827.786000", "154829.286000", "154831.786000", "154833.786000", "154835.786000", "154837.786000", "154839.286000", "154841.785000", "154843.787000", "154845.786000", "154847.286000", "154849.787000", "154851.786000", "154853.786000", "154855.786000", "154857.785000", "154859.786000", "154901.786000", "154903.787000", "154905.787000", "154907.787000", "154909.786000", "154911.786000", "154913.285000", "154915.785000", "154917.786000", "154919.787000", "154921.787000", "154923.786000", "154925.787000", "154927.286000", "154929.786000", "154931.286000", "154933.285000", "154935.787000", "154937.286000", "154939.787000", "154941.786000", "154943.287000", "154945.786000", "154947.785000", "154949.785000", "154951.785000", "154953.786000", "154955.787000", "154957.286000", "154959.286000", "155001.786000", "155003.787000", "155005.786000", "155007.786000", "155009.785000", "155011.803000", "155013.287000", "155015.286000", "155017.286000", "155019.787000", "155021.286000", "155023.786000", "155025.286000", "155027.787000", "155029.286000", "155031.787000", "155033.786000", "155035.786000", "155037.787000", "155039.785000", "155041.786000", "155043.785000", "155045.786000", "155047.786000", "155049.287000", "155051.787000", "155053.786000", "155055.287000", "155057.786000", "155059.785000", "155101.785000", "155103.786000", "155105.287000", "155107.787000", "155109.786000", "155111.786000", "155113.787000", "155115.786000", "155117.786000", "155119.786000", "155121.286000", "155123.286000", "155125.787000", "155127.287000", "155129.787000", "155131.286000", "155133.286000", "155135.786000", "155137.787000", "155139.787000", "155141.786000", "155143.786000", "155145.787000", "155147.787000", "155149.286000", "155151.785000", "155153.785000", "155155.787000", "155157.787000", "155159.286000", "155201.787000", "155203.787000", "155205.787000", "155207.786000", "155209.786000", "155211.285000", "155213.787000", "155215.787000", "155217.786000", "155219.786000", "155221.786000", "155223.287000", "155225.785000", "155227.785000", "155229.286000", "155231.787000", "155233.787000", "155235.787000", "155237.286000", "155239.286000", "155241.787000", "155243.786000", "155245.786000", "155247.787000", "155249.787000", "155251.786000", "155253.787000", "155255.787000", "155257.286000", "155259.785000", "155301.785000", "155303.286000", "155305.286000", "155307.786000", "155309.786000", "155311.787000", "155313.287000", "155315.787000", "155317.786000", "155319.786000", "155321.786000", "155323.787000", "155325.787000", "155327.787000", "155329.787000", "155331.786000", "155333.787000", "155335.786000", "155337.786000", "155339.786000", "155341.787000", "155343.787000", "155345.786000", "155347.787000", "155349.787000", "155351.786000", "155353.286000", "155355.437000"],
      "InstanceCreationTime": ["154526.290000", "154527.785000", "154529.785000", "154531.786000", "154533.786000", "154535.786000", "154537.287000", "154539.286000", "154541.786000", "154543.785000", "154545.786000", "154547.786000", "154549.786000", "154551.786000", "154553.286000", "154555.787000", "154557.287000", "154559.286000", "154601.785000", "154603.786000", "154605.787000", "154607.286000", "154609.786000", "154611.787000", "154613.787000", "154615.786000", "154617.285000", "154619.286000", "154621.785000", "154623.787000", "154625.787000", "154627.787000", "154629.786000", "154631.787000", "154633.287000", "154635.785000", "154637.786000", "154639.786000", "154641.787000", "154643.786000", "154645.787000", "154647.786000", "154649.786000", "154651.786000", "154653.785000", "154655.785000", "154657.785000", "154659.786000", "154701.787000", "154703.787000", "154705.286000", "154707.287000", "154709.785000", "154711.786000", "154713.786000", "154715.285000", "154717.786000", "154719.286000", "154721.786000", "154723.786000", "154725.287000", "154727.785000", "154729.285000", "154731.785000", "154733.786000", "154735.286000", "154737.786000", "154739.786000", "154741.786000", "154743.786000", "154745.786000", "154747.286000", "154749.785000", "154751.786000", "154753.787000", "154755.786000", "154757.787000", "154759.286000", "154801.786000", "154803.286000", "154805.786000", "154807.785000", "154809.786000", "154811.786000", "154813.786000", "154815.287000", "154817.286000", "154819.286000", "154821.785000", "154823.785000", "154825.285000", "154827.786000", "154829.286000", "154831.786000", "154833.786000", "154835.786000", "154837.786000", "154839.286000", "154841.785000", "154843.787000", "154845.786000", "154847.286000", "154849.787000", "154851.786000", "154853.786000", "154855.786000", "154857.785000", "154859.786000", "154901.786000", "154903.787000", "154905.787000", "154907.787000", "154909.786000", "154911.786000", "154913.285000", "154915.785000", "154917.786000", "154919.787000", "154921.787000", "154923.786000", "154925.787000", "154927.286000", "154929.786000", "154931.286000", "154933.285000", "154935.787000", "154937.286000", "154939.787000", "154941.786000", "154943.287000", "154945.786000", "154947.785000", "154949.785000", "154951.785000", "154953.786000", "154955.787000", "154957.286000", "154959.286000", "155001.786000", "155003.787000", "155005.786000", "155007.786000", "155009.785000", "155011.803000", "155013.287000", "155015.286000", "155017.286000", "155019.787000", "155021.286000", "155023.786000", "155025.286000", "155027.787000", "155029.286000", "155031.787000", "155033.786000", "155035.786000", "155037.787000", "155039.785000", "155041.786000", "155043.785000", "155045.786000", "155047.786000", "155049.287000", "155051.787000", "155053.786000", "155055.287000", "155057.786000", "155059.785000", "155101.785000", "155103.786000", "155105.287000", "155107.787000", "155109.786000", "155111.786000", "155113.787000", "155115.786000", "155117.786000", "155119.786000", "155121.286000", "155123.286000", "155125.787000", "155127.287000", "155129.787000", "155131.286000", "155133.286000", "155135.786000", "155137.787000", "155139.787000", "155141.786000", "155143.786000", "155145.787000", "155147.787000", "155149.286000", "155151.785000", "155153.785000", "155155.787000", "155157.787000", "155159.286000", "155201.787000", "155203.787000", "155205.787000", "155207.786000", "155209.786000", "155211.285000", "155213.787000", "155215.787000", "155217.786000", "155219.786000", "155221.786000", "155223.287000", "155225.785000", "155227.785000", "155229.286000", "155231.787000", "155233.787000", "155235.787000", "155237.286000", "155239.286000", "155241.787000", "155243.786000", "155245.786000", "155247.787000", "155249.787000", "155251.786000", "155253.787000", "155255.787000", "155257.286000", "155259.785000", "155301.785000", "155303.286000", "155305.286000", "155307.786000", "155309.786000", "155311.787000", "155313.287000", "155315.787000", "155317.786000", "155319.786000", "155321.786000", "155323.787000", "155325.787000", "155327.787000", "155329.787000", "155331.786000", "155333.787000", "155335.786000", "155337.786000", "155339.786000", "155341.787000", "155343.787000", "155345.786000", "155347.787000", "155349.787000", "155351.786000", "155353.286000", "155355.437000"],
      "InstanceNumber": [1, 2, 3, 4, 5, 6, 7, 8, 9, 10, 11, 12, 13, 14, 15, 16, 17, 18, 19, 20, 21, 22, 23, 24, 25, 26, 27, 28, 29, 30, 31, 32, 33, 34, 35, 36, 37, 38, 39, 40, 41, 42, 43, 44, 45, 46, 47, 48, 49, 50, 51, 52, 53, 54, 55, 56, 57, 58, 59, 60, 61, 62, 63, 64, 65, 66, 67, 68, 69, 70, 71, 72, 73, 74, 75, 76, 77, 78, 79, 80, 81, 82, 83, 84, 85, 86, 87, 88, 89, 90, 91, 92, 93, 94, 95, 96, 97, 98, 99, 100, 101, 102, 103, 104, 105, 106, 107, 108, 109, 110, 111, 112, 113, 114, 115, 116, 117, 118, 119, 120, 121, 122, 123, 124, 125, 126, 127, 128, 129, 130, 131, 132, 133, 134, 135, 136, 137, 138, 139, 140, 141, 142, 143, 144, 145, 146, 147, 148, 149, 150, 151, 152, 153, 154, 155, 156, 157, 158, 159, 160, 161, 162, 163, 164, 165, 166, 167, 168, 169, 170, 171, 172, 173, 174, 175, 176, 177, 178, 179, 180, 181, 182, 183, 184, 185, 186, 187, 188, 189, 190, 191, 192, 193, 194, 195, 196, 197, 198, 199, 200, 201, 202, 203, 204, 205, 206, 207, 208, 209, 210, 211, 212, 213, 214, 215, 216, 217, 218, 219, 220, 221, 222, 223, 224, 225, 226, 227, 228, 229, 230, 231, 232, 233, 234, 235, 236, 237, 238, 239, 240, 241, 242, 243, 244, 245, 246, 247, 248, 249, 250, 251, 252, 253, 254, 255, 256],
      "LargestImagePixelValue": [2793, 2449, 2307, 2501, 2639, 2441, 2448, 2372, 2198, 2681, 2158, 2530, 2428, 2244, 2570, 2544, 2377, 2492, 2440, 2349, 2466, 2296, 2263, 2172, 2553, 2540, 2382, 2604, 2310, 2477, 2363, 2281, 2317, 2522, 2423, 2385, 2627, 2737, 2612, 2407, 2682, 2430, 2730, 2403, 2354, 2210, 2483, 2512, 2558, 2389, 2584, 2458, 2526, 2421, 2324, 2297, 2303, 2282, 2476, 2312, 2352, 2231, 2411, 2284, 2353, 2480, 2359, 2615, 2478, 2161, 2546, 2199, 2307, 2312, 2264, 2397, 2337, 2387, 2313, 2359, 2456, 2237, 2571, 2279, 2444, 2216, 2592, 2169, 2546, 2451, 2472, 2355, 2364, 2555, 2366, 2385, 2566, 2495, 2426, 2212, 2557, 2461, 2341, 2345, 2357, 2359, 2402, 2360, 2349, 2431, 2647, 2434, 2322, 2645, 2451, 2381, 2399, 2503, 2367, 2461, 2352, 2235, 2461, 2200, 2534, 2155, 2658, 2340, 2344, 2244, 2541, 2317, 2279, 2242, 2493, 2242, 2447, 2357, 2353, 2363, 2318, 2663, 2385, 2383, 2340, 2529, 2339, 2256, 2628, 2505, 2680, 2383, 2200, 2578, 2604, 2564, 2355, 2558, 2391, 2425, 2749, 2493, 2389, 2480, 2392, 2347, 2485, 2314, 2615, 2271, 2458, 2260, 2292, 2312, 2359, 2377, 2314, 2343, 2360, 2353, 2532, 2398, 2380, 2294, 2399, 2360, 2344, 2375, 2256, 2207, 2317, 2325, 2220, 2537, 2377, 2439, 2337, 2488, 2449, 2255, 2554, 2317, 2344, 2193, 2547, 2533, 2392, 2192, 2411, 2384, 2257, 2304, 2253, 2535, 2273, 2252, 2603, 2259, 2397, 2386, 2269, 2306, 2308, 2376, 2286, 2316, 2352, 2246, 2240, 2252, 2199, 2381, 2319, 2457, 2238, 2332, 2334, 2825, 2497, 2361, 2352, 2305, 2287, 2266, 2605, 2473, 2329, 2320, 2312, 2336, 2367, 2344, 2745, 2307, 2490, 2396],
      "WindowCenter": [723.0, 718.0, 716.0, 719.0, 720.0, 718.0, 718.0, 716.0, 713.0, 719.0, 715.0, 721.0, 719.0, 714.0, 718.0, 718.0, 716.0, 717.0, 718.0, 716.0, 717.0, 714.0, 714.0, 713.0, 718.0, 717.0, 715.0, 718.0, 714.0, 716.0, 715.0, 714.0, 714.0, 715.0, 714.0, 714.0, 717.0, 717.0, 717.0, 715.0, 719.0, 715.0, 718.0, 714.0, 714.0, 712.0, 715.0, 716.0, 717.0, 716.0, 718.0, 716.0, 716.0, 715.0, 714.0, 714.0, 714.0, 714.0, 716.0, 713.0, 714.0, 713.0, 716.0, 714.0, 715.0, 716.0, 715.0, 718.0, 716.0, 711.0, 717.0, 712.0, 713.0, 713.0, 713.0, 715.0, 714.0, 715.0, 716.0, 716.0, 716.0, 711.0, 715.0, 711.0, 714.0, 712.0, 718.0, 712.0, 717.0, 717.0, 719.0, 717.0, 715.0, 718.0, 716.0, 716.0, 718.0, 717.0, 717.0, 714.0, 717.0, 715.0, 715.0, 715.0, 714.0, 713.0, 715.0, 715.0, 715.0, 716.0, 718.0, 716.0, 715.0, 718.0, 716.0, 714.0, 715.0, 717.0, 715.0, 716.0, 715.0, 713.0, 716.0, 712.0, 717.0, 711.0, 718.0, 715.0, 715.0, 713.0, 718.0, 715.0, 713.0, 712.0, 716.0, 713.0, 716.0, 715.0, 715.0, 715.0, 715.0, 718.0, 715.0, 715.0, 714.0, 717.0, 714.0, 714.0, 719.0, 717.0, 719.0, 715.0, 712.0, 717.0, 718.0, 718.0, 715.0, 717.0, 716.0, 716.0, 720.0, 717.0, 715.0, 717.0, 715.0, 714.0, 717.0, 716.0, 719.0, 713.0, 716.0, 713.0, 714.0, 715.0, 715.0, 716.0, 715.0, 716.0, 716.0, 716.0, 719.0, 715.0, 714.0, 713.0, 715.0, 714.0, 714.0, 715.0, 713.0, 712.0, 715.0, 714.0, 713.0, 717.0, 716.0, 718.0, 716.0, 717.0, 716.0, 713.0, 717.0, 715.0, 716.0, 713.0, 719.0, 719.0, 716.0, 713.0, 716.0, 716.0, 714.0, 714.0, 714.0, 718.0, 714.0, 714.0, 718.0, 713.0, 716.0, 716.0, 714.0, 715.0, 715.0, 717.0, 715.0, 715.0, 716.0, 714.0, 714.0, 714.0, 713.0, 716.0, 714.0, 716.0, 712.0, 714.0, 716.0, 722.0, 719.0, 716.0, 716.0, 715.0, 714.0, 714.0, 718.0, 718.0, 715.0, 716.0, 716.0, 715.0, 715.0, 714.0, 718.0, 713.0, 715.0, 713.0],
      "WindowWidth": [1536.0, 1525.0, 1520.0, 1525.0, 1529.0, 1524.0, 1524.0, 1520.0, 1511.0, 1526.0, 1516.0, 1531.0, 1525.0, 1515.0, 1524.0, 1523.0, 1519.0, 1522.0, 1522.0, 1520.0, 1522.0, 1515.0, 1515.0, 1511.0, 1522.0, 1520.0, 1516.0, 1523.0, 1515.0, 1519.0, 1515.0, 1514.0, 1513.0, 1517.0, 1514.0, 1514.0, 1520.0, 1521.0, 1520.0, 1516.0, 1524.0, 1516.0, 1522.0, 1514.0, 1514.0, 1508.0, 1517.0, 1519.0, 1521.0, 1518.0, 1523.0, 1518.0, 1519.0, 1517.0, 1514.0, 1514.0, 1514.0, 1515.0, 1518.0, 1512.0, 1514.0, 1512.0, 1519.0, 1514.0, 1515.0, 1518.0, 1517.0, 1524.0, 1518.0, 1506.0, 1520.0, 1510.0, 1512.0, 1513.0, 1512.0, 1515.0, 1515.0, 1518.0, 1519.0, 1519.0, 1519.0, 1507.0, 1515.0, 1507.0, 1514.0, 1509.0, 1522.0, 1510.0, 1522.0, 1522.0, 1525.0, 1520.0, 1517.0, 1522.0, 1518.0, 1520.0, 1524.0, 1522.0, 1521.0, 1514.0, 1522.0, 1517.0, 1515.0, 1517.0, 1515.0, 1512.0, 1515.0, 1517.0, 1516.0, 1519.0, 1524.0, 1520.0, 1516.0, 1524.0, 1518.0, 1514.0, 1516.0, 1521.0, 1517.0, 1517.0, 1515.0, 1511.0, 1519.0, 1511.0, 1521.0, 1507.0, 1524.0, 1516.0, 1517.0, 1513.0, 1523.0, 1516.0, 1513.0, 1510.0, 1519.0, 1512.0, 1519.0, 1516.0, 1517.0, 1517.0, 1516.0, 1524.0, 1517.0, 1516.0, 1515.0, 1520.0, 1515.0, 1513.0, 1525.0, 1521.0, 1524.0, 1516.0, 1509.0, 1521.0, 1524.0, 1524.0, 1517.0, 1521.0, 1518.0, 1519.0, 1528.0, 1521.0, 1517.0, 1520.0, 1517.0, 1515.0, 1522.0, 1518.0, 1525.0, 1513.0, 1518.0, 1512.0, 1514.0, 1516.0, 1518.0, 1519.0, 1518.0, 1518.0, 1519.0, 1520.0, 1524.0, 1517.0, 1515.0, 1512.0, 1517.0, 1515.0, 1513.0, 1515.0, 1512.0, 1510.0, 1516.0, 1515.0, 1511.0, 1521.0, 1520.0, 1523.0, 1518.0, 1521.0, 1518.0, 1511.0, 1521.0, 1516.0, 1518.0, 1512.0, 1524.0, 1526.0, 1520.0, 1512.0, 1519.0, 1519.0, 1515.0, 1515.0, 1513.0, 1522.0, 1515.0, 1515.0, 1523.0, 1512.0, 1518.0, 1520.0, 1515.0, 1515.0, 1517.0, 1521.0, 1517.0, 1517.0, 1518.0, 1515.0, 1513.0, 1514.0, 1511.0, 1518.0, 1515.0, 1518.0, 1511.0, 1514.0, 1518.0, 1532.0, 1526.0, 1520.0, 1519.0, 1516.0, 1515.0, 1514.0, 1524.0, 1523.0, 1517.0, 1518.0, 1518.0, 1517.0, 1517.0, 1514.0, 1523.0, 1510.0, 1515.0, 1511.0]
    },
    "slices": {}
  }
}