{
  "AcquisitionMatrixPE": 100,
  "AcquisitionNumber": 1,
  "AcquisitionTime": "16:12:47.212500",
  "BandwidthPerPixelPhaseEncode": 18.519,
  "BaseResolution": 100,
  "BodyPartExamined": "BRAIN",
  "ConsistencyInfo": "N4_VE11C_LATEST_20160120",
  "ConversionSoftware": "dcm2niix",
  "ConversionSoftwareVersion": "v1.0.20180622 GCC4.9.2",
  "DerivedVendorReportedEchoSpacing": 0.000539986,
  "DeviceSerialNumber": "166078",
  "DwellTime": 2.1e-06,
  "EchoTime": 0.034,
  "EchoTrainLength": 100,
  "EffectiveEchoSpacing": 0.000539986,
  "FlipAngle": 90,
  "ImageOrientationPatientDICOM": [1, 0.000106318, 0.000574268, 4.88817e-08, 0.983275, -0.182125],
  "ImageType": [
    "ORIGINAL",
    "PRIMARY",
    "M",
    "ND",
    "MOSAIC"
],
  "InPlanePhaseEncodingDirectionDICOM": "COL",
  "InstitutionAddress": "Street_StreetNo_Bei_Jing_District_CN_ZIP",
  "InstitutionName": "BeiJing_Normal_University",
  "InstitutionalDepartmentName": "Department",
  "MRAcquisitionType": "2D",
  "MagneticFieldStrength": 3,
  "Manufacturer": "Siemens",
  "ManufacturersModelName": "Prisma",
  "Modality": "MR",
  "MultibandAccelerationFactor": 3,
  "PartialFourier": 1,
  "PatientPosition": "HFS",
  "PercentPhaseFOV": 100,
  "PhaseEncodingDirection": "j-",
  "PhaseEncodingSteps": 100,
  "PhaseResolution": 1,
  "PixelBandwidth": 2380,
  "ProcedureStepDescription": "BNU_P2018_64CH_Zhen.ZongLei",
  "ProtocolName": "bold_100x100_s3_2x2x2_static_256",
  "PulseSequenceDetails": "%SiemensSeq%_ep2d_bold",
  "ReceiveCoilActiveElements": "HC1-7;NC1",
  "ReceiveCoilName": "HeadNeck_64",
  "ReconMatrixPE": 100,
  "RepetitionTime": 2,
  "SAR": 0.0640485,
  "ScanOptions": "FS",
  "ScanningSequence": "EP",
  "SequenceName": "_epfid2d1_100",
  "SequenceVariant": "SK",
  "SeriesDescription": "bold_100x100_s3_2x2x2_static_256",
  "SeriesNumber": 10,
  "ShimSetting": [-5461, -11488, -1290, 294, -94, -291, -83, 26],
  "SliceThickness": 2,
  "SliceTiming": [1.485, 0, 0.99, 0.0825, 1.0725, 0.165, 1.155, 0.2475, 1.2375, 0.33, 1.32, 0.4125, 1.4025, 0.5775, 1.5675, 0.66, 1.65, 0.7425, 1.7325, 0.825, 1.815, 0.9075, 1.8975, 0.495, 1.485, 0, 0.99, 0.0825, 1.0725, 0.165, 1.155, 0.2475, 1.2375, 0.33, 1.32, 0.4125, 1.4025, 0.5775, 1.5675, 0.66, 1.65, 0.7425, 1.7325, 0.825, 1.815, 0.9075, 1.8975, 0.495, 1.485, 0, 0.99, 0.0825, 1.0725, 0.165, 1.155, 0.2475, 1.2375, 0.33, 1.32, 0.4125, 1.4025, 0.5775, 1.5675, 0.66, 1.65, 0.7425, 1.7325, 0.825, 1.815, 0.9075, 1.8975, 0.495],
  "SoftwareVersions": "syngo_MR_E11",
  "SpacingBetweenSlices": 2,
  "StationName": "AWP166078",
  "TaskName": "naturalvision",
  "TotalReadoutTime": 0.0534586,
  "TxRefAmp": 235.543,
  "dcmmeta_affine": [
    [-1.9999996423721313, 9.77634542209671e-08, 0.0011680538300424814, 100.00170135498047],
    [-0.0002126351319020614, 1.9665509462356567, -0.36424902081489563, -77.9105453491211],
    [0.0011485364520922303, 0.3642490804195404, 1.966550588607788, -103.8703384399414],
    [0.0, 0.0, 0.0, 1.0]
],
  "dcmmeta_reorient_transform": [
    [0.0, -1.0, 0.0, 99.0],
    [1.0, 0.0, 0.0, 0.0],
    [0.0, 0.0, 1.0, 0.0],
    [0.0, 0.0, 0.0, 1.0]
],
  "dcmmeta_shape": [100, 100, 72, 256],
  "dcmmeta_slice_dim": 2,
  "dcmmeta_version": 0.6,
  "global": {
    "const": {
      "AcquisitionMatrix": [100, 0, 0, 100],
      "AngioFlag": "N",
      "BitsAllocated": 16,
      "BitsStored": 12,
      "BodyPartExamined": "BRAIN",
      "Columns": 900,
      "EchoNumbers": 1,
      "EchoTime": 34.0,
      "EchoTrainLength": 100,
      "FlipAngle": 90.0,
      "HighBit": 11,
      "ImageOrientationPatient": [0.99999982945628, 0.00010631756889, 0.00057426822051, 4.8881728e-08, 0.98327546982895, -0.1821245464858],
      "ImagePositionPatient": [-900.00161744891, -903.48342799399, 77.43054401784],
      "ImageType": [
        "ORIGINAL",
        "PRIMARY",
        "M",
        "ND",
        "MOSAIC"
],
      "ImagedNucleus": "1H",
      "ImagingFrequency": 123.257745,
      "InPlanePhaseEncodingDirection": "COL",
      "MRAcquisitionType": "2D",
      "MagneticFieldStrength": 3.0,
      "Manufacturer": "SIEMENS",
      "ManufacturerModelName": "Prisma",
      "Modality": "MR",
      "NumberOfAverages": 1.0,
      "NumberOfPhaseEncodingSteps": 100,
      "PercentPhaseFieldOfView": 100.0,
      "PercentSampling": 100.0,
      "PerformedProcedureStepStartTime": "151951.028000",
      "PhotometricInterpretation": "MONOCHROME2",
      "PixelBandwidth": 2380.0,
      "PixelRepresentation": 0,
      "PixelSpacing": [2.0, 2.0],
      "ProtocolName": "bold_100x100_s3_2x2x2_static_256",
      "RepetitionTime": 2000.0,
      "Rows": 900,
      "SAR": 0.06404845381537,
      "SamplesPerPixel": 1,
      "ScanOptions": "FS",
      "ScanningSequence": "EP",
      "SequenceName": "*epfid2d1_100",
      "SequenceVariant": "SK",
      "SeriesDescription": "bold_100x100_s3_2x2x2_static_256",
      "SeriesNumber": 10,
      "SeriesTime": "161250.068000",
      "SliceLocation": -87.885314831752,
      "SliceThickness": 2.0,
      "SmallestImagePixelValue": 0,
      "SoftwareVersions": "syngo MR E11",
      "SpacingBetweenSlices": 1.9999999783334,
      "SpecificCharacterSet": "ISO_IR 100",
      "StudyID": "1",
      "StudyTime": "151950.955000",
      "TransmitCoilName": "Body",
      "VariableFlipAngleFlag": "N",
      "WindowCenterWidthExplanation": "Algo1",
      "dBdt": 0.0},
    "slices": {}
  },
  "time": {
    "samples": {
      "AcquisitionNumber": [1, 2, 3, 4, 5, 6, 7, 8, 9, 10, 11, 12, 13, 14, 15, 16, 17, 18, 19, 20, 21, 22, 23, 24, 25, 26, 27, 28, 29, 30, 31, 32, 33, 34, 35, 36, 37, 38, 39, 40, 41, 42, 43, 44, 45, 46, 47, 48, 49, 50, 51, 52, 53, 54, 55, 56, 57, 58, 59, 60, 61, 62, 63, 64, 65, 66, 67, 68, 69, 70, 71, 72, 73, 74, 75, 76, 77, 78, 79, 80, 81, 82, 83, 84, 85, 86, 87, 88, 89, 90, 91, 92, 93, 94, 95, 96, 97, 98, 99, 100, 101, 102, 103, 104, 105, 106, 107, 108, 109, 110, 111, 112, 113, 114, 115, 116, 117, 118, 119, 120, 121, 122, 123, 124, 125, 126, 127, 128, 129, 130, 131, 132, 133, 134, 135, 136, 137, 138, 139, 140, 141, 142, 143, 144, 145, 146, 147, 148, 149, 150, 151, 152, 153, 154, 155, 156, 157, 158, 159, 160, 161, 162, 163, 164, 165, 166, 167, 168, 169, 170, 171, 172, 173, 174, 175, 176, 177, 178, 179, 180, 181, 182, 183, 184, 185, 186, 187, 188, 189, 190, 191, 192, 193, 194, 195, 196, 197, 198, 199, 200, 201, 202, 203, 204, 205, 206, 207, 208, 209, 210, 211, 212, 213, 214, 215, 216, 217, 218, 219, 220, 221, 222, 223, 224, 225, 226, 227, 228, 229, 230, 231, 232, 233, 234, 235, 236, 237, 238, 239, 240, 241, 242, 243, 244, 245, 246, 247, 248, 249, 250, 251, 252, 253, 254, 255, 256],
      "AcquisitionTime": ["161247.212500", "161249.212500", "161251.212500", "161253.212500", "161255.212500", "161257.212500", "161259.212500", "161301.212500", "161303.212500", "161305.212500", "161307.212500", "161309.212500", "161311.212500", "161313.212500", "161315.212500", "161317.212500", "161319.212500", "161321.212500", "161323.212500", "161325.212500", "161327.212500", "161329.212500", "161331.212500", "161333.212500", "161335.212500", "161337.212500", "161339.212500", "161341.212500", "161343.212500", "161345.212500", "161347.212500", "161349.212500", "161351.212500", "161353.212500", "161355.212500", "161357.212500", "161359.212500", "161401.212500", "161403.212500", "161405.212500", "161407.212500", "161409.212500", "161411.212500", "161413.212500", "161415.212500", "161417.212500", "161419.212500", "161421.212500", "161423.212500", "161425.212500", "161427.212500", "161429.212500", "161431.212500", "161433.212500", "161435.212500", "161437.212500", "161439.212500", "161441.212500", "161443.212500", "161445.212500", "161447.212500", "161449.212500", "161451.212500", "161453.212500", "161455.212500", "161457.212500", "161459.212500", "161501.212500", "161503.212500", "161505.212500", "161507.212500", "161509.212500", "161511.212500", "161513.212500", "161515.212500", "161517.212500", "161519.212500", "161521.212500", "161523.212500", "161525.212500", "161527.212500", "161529.212500", "161531.212500", "161533.212500", "161535.212500", "161537.212500", "161539.212500", "161541.212500", "161543.212500", "161545.212500", "161547.212500", "161549.212500", "161551.212500", "161553.212500", "161555.212500", "161557.212500", "161559.212500", "161601.212500", "161603.212500", "161605.212500", "161607.212500", "161609.212500", "161611.212500", "161613.212500", "161615.212500", "161617.212500", "161619.212500", "161621.212500", "161623.212500", "161625.212500", "161627.212500", "161629.212500", "161631.212500", "161633.212500", "161635.212500", "161637.212500", "161639.212500", "161641.212500", "161643.212500", "161645.212500", "161647.212500", "161649.212500", "161651.212500", "161653.212500", "161655.212500", "161657.212500", "161659.212500", "161701.212500", "161703.212500", "161705.212500", "161707.212500", "161709.212500", "161711.212500", "161713.212500", "161715.212500", "161717.212500", "161719.212500", "161721.212500", "161723.212500", "161725.212500", "161727.212500", "161729.212500", "161731.212500", "161733.212500", "161735.212500", "161737.212500", "161739.212500", "161741.212500", "161743.212500", "161745.212500", "161747.212500", "161749.212500", "161751.212500", "161753.212500", "161755.212500", "161757.212500", "161759.212500", "161801.212500", "161803.212500", "161805.212500", "161807.212500", "161809.212500", "161811.212500", "161813.212500", "161815.212500", "161817.212500", "161819.212500", "161821.212500", "161823.212500", "161825.212500", "161827.212500", "161829.212500", "161831.212500", "161833.212500", "161835.212500", "161837.212500", "161839.212500", "161841.212500", "161843.212500", "161845.212500", "161847.212500", "161849.212500", "161851.212500", "161853.212500", "161855.212500", "161857.212500", "161859.212500", "161901.212500", "161903.212500", "161905.212500", "161907.212500", "161909.212500", "161911.212500", "161913.212500", "161915.212500", "161917.212500", "161919.212500", "161921.212500", "161923.212500", "161925.212500", "161927.212500", "161929.212500", "161931.212500", "161933.212500", "161935.212500", "161937.212500", "161939.212500", "161941.212500", "161943.212500", "161945.212500", "161947.212500", "161949.212500", "161951.212500", "161953.212500", "161955.212500", "161957.212500", "161959.212500", "162001.212500", "162003.212500", "162005.212500", "162007.212500", "162009.212500", "162011.212500", "162013.212500", "162015.212500", "162017.212500", "162019.212500", "162021.212500", "162023.212500", "162025.212500", "162027.212500", "162029.212500", "162031.212500", "162033.212500", "162035.212500", "162037.212500", "162039.212500", "162041.212500", "162043.212500", "162045.212500", "162047.212500", "162049.212500", "162051.212500", "162053.212500", "162055.212500", "162057.212500", "162059.212500", "162101.212500", "162103.212500", "162105.212500", "162107.212500", "162109.212500", "162111.212500", "162113.212500", "162115.212500", "162117.212500"],
      "ContentTime": ["161250.071000", "161251.566000", "161253.567000", "161255.566000", "161257.567000", "161259.566000", "161301.567000", "161303.566000", "161305.566000", "161307.567000", "161309.566000", "161311.566000", "161313.567000", "161315.566000", "161317.566000", "161319.566000", "161321.566000", "161323.566000", "161325.566000", "161327.566000", "161329.566000", "161331.567000", "161333.566000", "161335.567000", "161337.567000", "161339.566000", "161341.566000", "161343.567000", "161345.566000", "161347.567000", "161349.567000", "161351.566000", "161353.567000", "161355.567000", "161357.566000", "161359.567000", "161401.567000", "161403.566000", "161405.566000", "161407.567000", "161409.566000", "161411.566000", "161413.567000", "161415.567000", "161417.566000", "161419.567000", "161421.566000", "161423.568000", "161425.566000", "161427.566000", "161429.567000", "161431.567000", "161433.566000", "161435.567000", "161437.566000", "161439.566000", "161441.566000", "161443.566000", "161445.567000", "161447.567000", "161449.567000", "161451.566000", "161453.566000", "161455.567000", "161457.567000", "161459.566000", "161501.567000", "161503.567000", "161505.566000", "161507.566000", "161509.567000", "161511.566000", "161513.567000", "161515.567000", "161517.567000", "161519.566000", "161521.566000", "161523.566000", "161525.567000", "161527.566000", "161529.566000", "161531.567000", "161533.568000", "161535.567000", "161537.567000", "161539.567000", "161541.566000", "161543.566000", "161545.566000", "161547.566000", "161549.567000", "161551.567000", "161553.567000", "161555.566000", "161557.567000", "161559.566000", "161601.566000", "161603.566000", "161605.567000", "161607.567000", "161609.567000", "161611.567000", "161613.566000", "161615.567000", "161617.567000", "161619.566000", "161621.567000", "161623.566000", "161625.566000", "161627.566000", "161629.566000", "161631.566000", "161633.566000", "161635.566000", "161637.567000", "161639.567000", "161641.567000", "161643.567000", "161645.566000", "161647.566000", "161649.567000", "161651.567000", "161653.567000", "161655.567000", "161657.567000", "161659.567000", "161701.566000", "161703.566000", "161705.566000", "161707.566000", "161709.567000", "161711.566000", "161713.566000", "161715.566000", "161717.566000", "161719.567000", "161721.566000", "161723.567000", "161725.567000", "161727.567000", "161729.567000", "161731.567000", "161733.567000", "161735.567000", "161737.566000", "161739.567000", "161741.566000", "161743.567000", "161745.567000", "161747.567000", "161749.567000", "161751.567000", "161753.567000", "161755.566000", "161757.566000", "161759.567000", "161801.566000", "161803.567000", "161805.567000", "161807.567000", "161809.567000", "161811.566000", "161813.567000", "161815.566000", "161817.566000", "161819.567000", "161821.567000", "161823.566000", "161825.566000", "161827.567000", "161829.566000", "161831.567000", "161833.567000", "161835.566000", "161837.567000", "161839.566000", "161841.567000", "161843.566000", "161845.567000", "161847.567000", "161849.567000", "161851.566000", "161853.567000", "161855.566000", "161857.567000", "161859.567000", "161901.567000", "161903.568000", "161905.566000", "161907.567000", "161909.567000", "161911.566000", "161913.567000", "161915.567000", "161917.566000", "161919.567000", "161921.566000", "161923.566000", "161925.566000", "161927.567000", "161929.567000", "161931.566000", "161933.566000", "161935.567000", "161937.567000", "161939.566000", "161941.566000", "161943.567000", "161945.566000", "161947.566000", "161949.567000", "161951.566000", "161953.567000", "161955.568000", "161957.567000", "161959.566000", "162001.566000", "162003.567000", "162005.567000", "162007.567000", "162009.567000", "162011.566000", "162013.567000", "162015.566000", "162017.567000", "162019.567000", "162021.566000", "162023.567000", "162025.567000", "162027.567000", "162029.567000", "162031.566000", "162033.566000", "162035.567000", "162037.567000", "162039.566000", "162041.567000", "162043.567000", "162045.567000", "162047.566000", "162049.567000", "162051.566000", "162053.567000", "162055.567000", "162057.566000", "162059.566000", "162101.567000", "162103.567000", "162105.568000", "162107.567000", "162109.567000", "162111.566000", "162113.567000", "162115.566000", "162117.567000", "162119.302000"],
      "InstanceCreationTime": ["161250.071000", "161251.566000", "161253.567000", "161255.566000", "161257.567000", "161259.566000", "161301.567000", "161303.566000", "161305.566000", "161307.567000", "161309.566000", "161311.566000", "161313.567000", "161315.566000", "161317.566000", "161319.566000", "161321.566000", "161323.566000", "161325.566000", "161327.566000", "161329.566000", "161331.567000", "161333.566000", "161335.567000", "161337.567000", "161339.566000", "161341.566000", "161343.567000", "161345.566000", "161347.567000", "161349.567000", "161351.566000", "161353.567000", "161355.567000", "161357.566000", "161359.567000", "161401.567000", "161403.566000", "161405.566000", "161407.567000", "161409.566000", "161411.566000", "161413.567000", "161415.567000", "161417.566000", "161419.567000", "161421.566000", "161423.568000", "161425.566000", "161427.566000", "161429.567000", "161431.567000", "161433.566000", "161435.567000", "161437.566000", "161439.566000", "161441.566000", "161443.566000", "161445.567000", "161447.567000", "161449.567000", "161451.566000", "161453.566000", "161455.567000", "161457.567000", "161459.566000", "161501.567000", "161503.567000", "161505.566000", "161507.566000", "161509.567000", "161511.566000", "161513.567000", "161515.567000", "161517.567000", "161519.566000", "161521.566000", "161523.566000", "161525.567000", "161527.566000", "161529.566000", "161531.567000", "161533.568000", "161535.567000", "161537.567000", "161539.567000", "161541.566000", "161543.566000", "161545.566000", "161547.566000", "161549.567000", "161551.567000", "161553.567000", "161555.566000", "161557.567000", "161559.566000", "161601.566000", "161603.566000", "161605.567000", "161607.567000", "161609.567000", "161611.567000", "161613.566000", "161615.567000", "161617.567000", "161619.566000", "161621.567000", "161623.566000", "161625.566000", "161627.566000", "161629.566000", "161631.566000", "161633.566000", "161635.566000", "161637.567000", "161639.567000", "161641.567000", "161643.567000", "161645.566000", "161647.566000", "161649.567000", "161651.567000", "161653.567000", "161655.567000", "161657.567000", "161659.567000", "161701.566000", "161703.566000", "161705.566000", "161707.566000", "161709.567000", "161711.566000", "161713.566000", "161715.566000", "161717.566000", "161719.567000", "161721.566000", "161723.567000", "161725.567000", "161727.567000", "161729.567000", "161731.567000", "161733.567000", "161735.567000", "161737.566000", "161739.567000", "161741.566000", "161743.567000", "161745.567000", "161747.567000", "161749.567000", "161751.567000", "161753.567000", "161755.566000", "161757.566000", "161759.567000", "161801.566000", "161803.567000", "161805.567000", "161807.567000", "161809.567000", "161811.566000", "161813.567000", "161815.566000", "161817.566000", "161819.567000", "161821.567000", "161823.566000", "161825.566000", "161827.567000", "161829.566000", "161831.567000", "161833.567000", "161835.566000", "161837.567000", "161839.566000", "161841.567000", "161843.566000", "161845.567000", "161847.567000", "161849.567000", "161851.566000", "161853.567000", "161855.566000", "161857.567000", "161859.567000", "161901.567000", "161903.568000", "161905.566000", "161907.567000", "161909.567000", "161911.566000", "161913.567000", "161915.567000", "161917.566000", "161919.567000", "161921.566000", "161923.566000", "161925.566000", "161927.567000", "161929.567000", "161931.566000", "161933.566000", "161935.567000", "161937.567000", "161939.566000", "161941.566000", "161943.567000", "161945.566000", "161947.566000", "161949.567000", "161951.566000", "161953.567000", "161955.568000", "161957.567000", "161959.566000", "162001.566000", "162003.567000", "162005.567000", "162007.567000", "162009.567000", "162011.566000", "162013.567000", "162015.566000", "162017.567000", "162019.567000", "162021.566000", "162023.567000", "162025.567000", "162027.567000", "162029.567000", "162031.566000", "162033.566000", "162035.567000", "162037.567000", "162039.566000", "162041.567000", "162043.567000", "162045.567000", "162047.566000", "162049.567000", "162051.566000", "162053.567000", "162055.567000", "162057.566000", "162059.566000", "162101.567000", "162103.567000", "162105.568000", "162107.567000", "162109.567000", "162111.566000", "162113.567000", "162115.566000", "162117.567000", "162119.302000"],
      "InstanceNumber": [1, 2, 3, 4, 5, 6, 7, 8, 9, 10, 11, 12, 13, 14, 15, 16, 17, 18, 19, 20, 21, 22, 23, 24, 25, 26, 27, 28, 29, 30, 31, 32, 33, 34, 35, 36, 37, 38, 39, 40, 41, 42, 43, 44, 45, 46, 47, 48, 49, 50, 51, 52, 53, 54, 55, 56, 57, 58, 59, 60, 61, 62, 63, 64, 65, 66, 67, 68, 69, 70, 71, 72, 73, 74, 75, 76, 77, 78, 79, 80, 81, 82, 83, 84, 85, 86, 87, 88, 89, 90, 91, 92, 93, 94, 95, 96, 97, 98, 99, 100, 101, 102, 103, 104, 105, 106, 107, 108, 109, 110, 111, 112, 113, 114, 115, 116, 117, 118, 119, 120, 121, 122, 123, 124, 125, 126, 127, 128, 129, 130, 131, 132, 133, 134, 135, 136, 137, 138, 139, 140, 141, 142, 143, 144, 145, 146, 147, 148, 149, 150, 151, 152, 153, 154, 155, 156, 157, 158, 159, 160, 161, 162, 163, 164, 165, 166, 167, 168, 169, 170, 171, 172, 173, 174, 175, 176, 177, 178, 179, 180, 181, 182, 183, 184, 185, 186, 187, 188, 189, 190, 191, 192, 193, 194, 195, 196, 197, 198, 199, 200, 201, 202, 203, 204, 205, 206, 207, 208, 209, 210, 211, 212, 213, 214, 215, 216, 217, 218, 219, 220, 221, 222, 223, 224, 225, 226, 227, 228, 229, 230, 231, 232, 233, 234, 235, 236, 237, 238, 239, 240, 241, 242, 243, 244, 245, 246, 247, 248, 249, 250, 251, 252, 253, 254, 255, 256],
      "LargestImagePixelValue": [2720, 2662, 2952, 2624, 2617, 2769, 2698, 2726, 2687, 2703, 2712, 2749, 2742, 3169, 2704, 2692, 2707, 2692, 2700, 2733, 2704, 2760, 2754, 2933, 2754, 2778, 2811, 2850, 2732, 2768, 2741, 2733, 2730, 2717, 2965, 2737, 2766, 2917, 2733, 2734, 3124, 2741, 2868, 2777, 2755, 2950, 2847, 2744, 2745, 2756, 2775, 2758, 2803, 3132, 2718, 2748, 2772, 2771, 3110, 2730, 2761, 2790, 2727, 2710, 2759, 2769, 2713, 2747, 2829, 2740, 2758, 2762, 2780, 2925, 2719, 2745, 2734, 2805, 2743, 2738, 2764, 2748, 2995, 2694, 2697, 2739, 2724, 2913, 2733, 2738, 2736, 3194, 2715, 3172, 2765, 2775, 2721, 2749, 2770, 2742, 2800, 2740, 2794, 2748, 2774, 2741, 3105, 2748, 2745, 3162, 2695, 2729, 2739, 2744, 3185, 2723, 2746, 2746, 2988, 2701, 3021, 2760, 2873, 2754, 2752, 2773, 2699, 2760, 2736, 2926, 2716, 2758, 2751, 2777, 2747, 2771, 2762, 2787, 2741, 3234, 2702, 2728, 2819, 2716, 2753, 2758, 2752, 2775, 2778, 3083, 2796, 2774, 2788, 2833, 2726, 2694, 2717, 2787, 2779, 2776, 2758, 2755, 2947, 2744, 2785, 2780, 2799, 2742, 2784, 2748, 2776, 2755, 2744, 2853, 2913, 2768, 2755, 2769, 3040, 2759, 2756, 2795, 2778, 2818, 2849, 2731, 2789, 2761, 3001, 2729, 3020, 2763, 2729, 2763, 3035, 2770, 2761, 3136, 2779, 2772, 2733, 2725, 3016, 2738, 2767, 2744, 2998, 2754, 2772, 2731, 2764, 3020, 2742, 2883, 2777, 2783, 2745, 3010, 2718, 2753, 2776, 2722, 2733, 2723, 2729, 3066, 2729, 2743, 2762, 2754, 2743, 2767, 2731, 2771, 2760, 2779, 2720, 2738, 2774, 2779, 2768, 2784, 2751, 2724, 2746, 2760, 2766, 2691, 2703, 2757, 2739, 2777, 2753, 2757, 2778, 2760],
      "WindowCenter": [747.0, 746.0, 749.0, 747.0, 748.0, 751.0, 751.0, 751.0, 750.0, 752.0, 753.0, 752.0, 751.0, 755.0, 751.0, 751.0, 751.0, 751.0, 750.0, 750.0, 749.0, 751.0, 752.0, 754.0, 753.0, 754.0, 755.0, 753.0, 752.0, 753.0, 752.0, 751.0, 750.0, 749.0, 751.0, 753.0, 753.0, 754.0, 753.0, 753.0, 754.0, 751.0, 751.0, 750.0, 750.0, 754.0, 753.0, 752.0, 753.0, 754.0, 750.0, 751.0, 753.0, 754.0, 747.0, 751.0, 749.0, 753.0, 755.0, 751.0, 752.0, 753.0, 750.0, 750.0, 754.0, 752.0, 751.0, 754.0, 751.0, 753.0, 753.0, 750.0, 753.0, 753.0, 750.0, 751.0, 752.0, 752.0, 750.0, 749.0, 751.0, 751.0, 752.0, 749.0, 751.0, 752.0, 753.0, 752.0, 752.0, 752.0, 751.0, 752.0, 750.0, 753.0, 752.0, 752.0, 750.0, 748.0, 752.0, 750.0, 753.0, 751.0, 754.0, 752.0, 752.0, 752.0, 754.0, 752.0, 753.0, 754.0, 748.0, 750.0, 752.0, 751.0, 755.0, 750.0, 750.0, 752.0, 751.0, 750.0, 753.0, 753.0, 753.0, 752.0, 752.0, 752.0, 751.0, 751.0, 750.0, 753.0, 752.0, 753.0, 752.0, 751.0, 751.0, 752.0, 751.0, 751.0, 750.0, 756.0, 751.0, 750.0, 752.0, 750.0, 751.0, 751.0, 751.0, 751.0, 752.0, 754.0, 753.0, 750.0, 751.0, 752.0, 749.0, 748.0, 752.0, 751.0, 753.0, 753.0, 752.0, 753.0, 753.0, 752.0, 755.0, 754.0, 753.0, 751.0, 751.0, 754.0, 754.0, 750.0, 752.0, 753.0, 752.0, 747.0, 749.0, 752.0, 753.0, 751.0, 750.0, 751.0, 752.0, 752.0, 753.0, 751.0, 751.0, 751.0, 751.0, 749.0, 752.0, 751.0, 750.0, 754.0, 754.0, 751.0, 753.0, 754.0, 754.0, 752.0, 750.0, 750.0, 752.0, 751.0, 753.0, 755.0, 754.0, 751.0, 753.0, 750.0, 754.0, 753.0, 751.0, 752.0, 752.0, 752.0, 751.0, 755.0, 751.0, 753.0, 754.0, 749.0, 751.0, 751.0, 751.0, 752.0, 752.0, 754.0, 751.0, 753.0, 751.0, 753.0, 753.0, 755.0, 752.0, 750.0, 751.0, 749.0, 753.0, 752.0, 752.0, 752.0, 751.0, 751.0, 750.0, 751.0, 750.0, 746.0, 750.0, 749.0, 754.0, 754.0, 753.0, 754.0, 751.0, 754.0],
      "WindowWidth": [1587.0, 1585.0, 1592.0, 1587.0, 1591.0, 1597.0, 1597.0, 1597.0, 1596.0, 1599.0, 1602.0, 1599.0, 1597.0, 1605.0, 1597.0, 1597.0, 1597.0, 1596.0, 1595.0, 1593.0, 1592.0, 1596.0, 1599.0, 1605.0, 1601.0, 1605.0, 1606.0, 1602.0, 1599.0, 1601.0, 1600.0, 1596.0, 1594.0, 1592.0, 1597.0, 1602.0, 1603.0, 1605.0, 1602.0, 1601.0, 1604.0, 1598.0, 1596.0, 1593.0, 1595.0, 1603.0, 1601.0, 1598.0, 1600.0, 1603.0, 1595.0, 1598.0, 1601.0, 1604.0, 1587.0, 1596.0, 1592.0, 1602.0, 1606.0, 1595.0, 1600.0, 1601.0, 1593.0, 1595.0, 1603.0, 1599.0, 1598.0, 1604.0, 1597.0, 1600.0, 1600.0, 1594.0, 1602.0, 1601.0, 1595.0, 1597.0, 1598.0, 1598.0, 1595.0, 1592.0, 1596.0, 1596.0, 1598.0, 1592.0, 1596.0, 1598.0, 1602.0, 1599.0, 1598.0, 1598.0, 1595.0, 1597.0, 1593.0, 1600.0, 1599.0, 1598.0, 1593.0, 1589.0, 1598.0, 1593.0, 1602.0, 1597.0, 1604.0, 1598.0, 1598.0, 1600.0, 1604.0, 1599.0, 1603.0, 1604.0, 1590.0, 1594.0, 1598.0, 1597.0, 1606.0, 1594.0, 1593.0, 1600.0, 1596.0, 1595.0, 1599.0, 1602.0, 1602.0, 1600.0, 1598.0, 1599.0, 1596.0, 1596.0, 1594.0, 1601.0, 1598.0, 1600.0, 1598.0, 1596.0, 1596.0, 1597.0, 1597.0, 1596.0, 1594.0, 1607.0, 1595.0, 1595.0, 1597.0, 1595.0, 1597.0, 1596.0, 1595.0, 1596.0, 1598.0, 1604.0, 1601.0, 1593.0, 1595.0, 1598.0, 1590.0, 1590.0, 1599.0, 1596.0, 1601.0, 1600.0, 1600.0, 1601.0, 1600.0, 1600.0, 1608.0, 1605.0, 1600.0, 1597.0, 1596.0, 1604.0, 1604.0, 1593.0, 1598.0, 1599.0, 1598.0, 1585.0, 1592.0, 1599.0, 1600.0, 1597.0, 1595.0, 1597.0, 1597.0, 1600.0, 1601.0, 1596.0, 1597.0, 1597.0, 1596.0, 1592.0, 1599.0, 1597.0, 1595.0, 1605.0, 1603.0, 1598.0, 1601.0, 1604.0, 1603.0, 1599.0, 1594.0, 1594.0, 1599.0, 1597.0, 1601.0, 1607.0, 1603.0, 1597.0, 1601.0, 1594.0, 1604.0, 1602.0, 1597.0, 1598.0, 1598.0, 1598.0, 1597.0, 1604.0, 1596.0, 1601.0, 1603.0, 1591.0, 1598.0, 1597.0, 1596.0, 1598.0, 1599.0, 1603.0, 1597.0, 1600.0, 1597.0, 1601.0, 1600.0, 1606.0, 1599.0, 1594.0, 1596.0, 1592.0, 1601.0, 1598.0, 1598.0, 1598.0, 1596.0, 1596.0, 1594.0, 1597.0, 1593.0, 1584.0, 1595.0, 1592.0, 1603.0, 1604.0, 1602.0, 1603.0, 1596.0, 1604.0]
    },
    "slices": {}
  }
}