{
 "AcquisitionMatrixPE": 100,
 "AcquisitionNumber": 1,
 "AcquisitionTime": "16:00:7.500000",
 "BandwidthPerPixelPhaseEncode": 18.519,
 "BaseResolution": 100,
 "BodyPartExamined": "BRAIN",
 "ConsistencyInfo": "N4_VE11C_LATEST_20160120",
 "ConversionSoftware": "dcm2niix",
 "ConversionSoftwareVersion": "v1.0.20180622 GCC4.9.2",
 "DerivedVendorReportedEchoSpacing": 0.000539986,
 "DeviceSerialNumber": "166078",
 "DwellTime": 2.1e-06,
 "EchoTime": 0.034,
 "EchoTrainLength": 100,
 "EffectiveEchoSpacing": 0.000539986,
 "FlipAngle": 90,
 "ImageOrientationPatientDICOM": [
  1,
  0.000106318,
  0.000574268,
  4.88817e-08,
  0.983275,
  -0.182125
 ],
 "ImageType": [
  "ORIGINAL",
  "PRIMARY",
  "M",
  "ND",
  "MOSAIC"
 ],
 "InPlanePhaseEncodingDirectionDICOM": "COL",
 "InstitutionAddress": "Street_StreetNo_Bei_Jing_District_CN_ZIP",
 "InstitutionName": "BeiJing_Normal_University",
 "InstitutionalDepartmentName": "Department",
 "MRAcquisitionType": "2D",
 "MagneticFieldStrength": 3,
 "Manufacturer": "Siemens",
 "ManufacturersModelName": "Prisma",
 "Modality": "MR",
 "MultibandAccelerationFactor": 3,
 "PartialFourier": 1,
 "PatientPosition": "HFS",
 "PercentPhaseFOV": 100,
 "PhaseEncodingDirection": "j-",
 "PhaseEncodingSteps": 100,
 "PhaseResolution": 1,
 "PixelBandwidth": 2380,
 "ProcedureStepDescription": "BNU_P2018_64CH_Zhen.ZongLei",
 "ProtocolName": "bold_100x100_s3_2x2x2_static_256",
 "PulseSequenceDetails": "%SiemensSeq%_ep2d_bold",
 "ReceiveCoilActiveElements": "HC1-7;NC1",
 "ReceiveCoilName": "HeadNeck_64",
 "ReconMatrixPE": 100,
 "RepetitionTime": 2,
 "SAR": 0.0640485,
 "ScanOptions": "FS",
 "ScanningSequence": "EP",
 "SequenceName": "_epfid2d1_100",
 "SequenceVariant": "SK",
 "SeriesDescription": "bold_100x100_s3_2x2x2_static_256",
 "SeriesNumber": 7,
 "ShimSetting": [
  -5461,
  -11488,
  -1290,
  294,
  -94,
  -291,
  -83,
  26
 ],
 "SliceThickness": 2,
 "SliceTiming": [
  1.485,
  0,
  0.99,
  0.0825,
  1.0725,
  0.165,
  1.155,
  0.2475,
  1.2375,
  0.33,
  1.32,
  0.4125,
  1.4025,
  0.5775,
  1.5675,
  0.66,
  1.65,
  0.7425,
  1.7325,
  0.825,
  1.815,
  0.9075,
  1.8975,
  0.495,
  1.485,
  0,
  0.99,
  0.0825,
  1.0725,
  0.165,
  1.155,
  0.2475,
  1.2375,
  0.33,
  1.32,
  0.4125,
  1.4025,
  0.5775,
  1.5675,
  0.66,
  1.65,
  0.7425,
  1.7325,
  0.825,
  1.815,
  0.9075,
  1.8975,
  0.495,
  1.485,
  0,
  0.99,
  0.0825,
  1.0725,
  0.165,
  1.155,
  0.2475,
  1.2375,
  0.33,
  1.32,
  0.4125,
  1.4025,
  0.5775,
  1.5675,
  0.66,
  1.65,
  0.7425,
  1.7325,
  0.825,
  1.815,
  0.9075,
  1.8975,
  0.495
 ],
 "SoftwareVersions": "syngo_MR_E11",
 "SpacingBetweenSlices": 2,
 "StationName": "AWP166078",
 "TaskName": "imagenet",
 "TotalReadoutTime": 0.0534586,
 "TxRefAmp": 235.543,
 "dcmmeta_affine": [
  [
   -1.9999996423721313,
   9.77634542209671e-08,
   0.0011680538300424814,
   100.00170135498047
  ],
  [
   -0.0002126351319020614,
   1.9665509462356567,
   -0.36424902081489563,
   -77.9105453491211
  ],
  [
   0.0011485364520922303,
   0.3642490804195404,
   1.966550588607788,
   -103.8703384399414
  ],
  [
   0.0,
   0.0,
   0.0,
   1.0
  ]
 ],
 "dcmmeta_reorient_transform": [
  [
   0.0,
   -1.0,
   0.0,
   99.0
  ],
  [
   1.0,
   0.0,
   0.0,
   0.0
  ],
  [
   0.0,
   0.0,
   1.0,
   0.0
  ],
  [
   0.0,
   0.0,
   0.0,
   1.0
  ]
 ],
 "dcmmeta_shape": [
  100,
  100,
  72,
  256
 ],
 "dcmmeta_slice_dim": 2,
 "dcmmeta_version": 0.6,
 "global": {
  "const": {
   "AcquisitionMatrix": [
    100,
    0,
    0,
    100
   ],
   "AngioFlag": "N",
   "BitsAllocated": 16,
   "BitsStored": 12,
   "BodyPartExamined": "BRAIN",
   "Columns": 900,
   "EchoNumbers": 1,
   "EchoTime": 34.0,
   "EchoTrainLength": 100,
   "FlipAngle": 90.0,
   "HighBit": 11,
   "ImageOrientationPatient": [
    0.99999982945628,
    0.00010631756889,
    0.00057426822051,
    4.8881728e-08,
    0.98327546982895,
    -0.1821245464858
   ],
   "ImagePositionPatient": [
    -900.00161744891,
    -903.48342799399,
    77.43054401784
   ],
   "ImageType": [
    "ORIGINAL",
    "PRIMARY",
    "M",
    "ND",
    "MOSAIC"
   ],
   "ImagedNucleus": "1H",
   "ImagingFrequency": 123.257749,
   "InPlanePhaseEncodingDirection": "COL",
   "MRAcquisitionType": "2D",
   "MagneticFieldStrength": 3.0,
   "Manufacturer": "SIEMENS",
   "ManufacturerModelName": "Prisma",
   "Modality": "MR",
   "NumberOfAverages": 1.0,
   "NumberOfPhaseEncodingSteps": 100,
   "PercentPhaseFieldOfView": 100.0,
   "PercentSampling": 100.0,
   "PerformedProcedureStepStartTime": "151951.028000",
   "PhotometricInterpretation": "MONOCHROME2",
   "PixelBandwidth": 2380.0,
   "PixelRepresentation": 0,
   "PixelSpacing": [
    2.0,
    2.0
   ],
   "ProtocolName": "bold_100x100_s3_2x2x2_static_256",
   "RepetitionTime": 2000.0,
   "Rows": 900,
   "SAR": 0.06404845381537,
   "SamplesPerPixel": 1,
   "ScanOptions": "FS",
   "ScanningSequence": "EP",
   "SequenceName": "*epfid2d1_100",
   "SequenceVariant": "SK",
   "SeriesDescription": "bold_100x100_s3_2x2x2_static_256",
   "SeriesNumber": 7,
   "SeriesTime": "160010.313000",
   "SliceLocation": -87.885314831752,
   "SliceThickness": 2.0,
   "SmallestImagePixelValue": 0,
   "SoftwareVersions": "syngo MR E11",
   "SpacingBetweenSlices": 1.9999999783334,
   "SpecificCharacterSet": "ISO_IR 100",
   "StudyID": "1",
   "StudyTime": "151950.955000",
   "TransmitCoilName": "Body",
   "VariableFlipAngleFlag": "N",
   "WindowCenterWidthExplanation": "Algo1",
   "dBdt": 0.0
  },
  "slices": {}
 },
 "time": {
  "samples": {
   "AcquisitionNumber": [
    1,
    2,
    3,
    4,
    5,
    6,
    7,
    8,
    9,
    10,
    11,
    12,
    13,
    14,
    15,
    16,
    17,
    18,
    19,
    20,
    21,
    22,
    23,
    24,
    25,
    26,
    27,
    28,
    29,
    30,
    31,
    32,
    33,
    34,
    35,
    36,
    37,
    38,
    39,
    40,
    41,
    42,
    43,
    44,
    45,
    46,
    47,
    48,
    49,
    50,
    51,
    52,
    53,
    54,
    55,
    56,
    57,
    58,
    59,
    60,
    61,
    62,
    63,
    64,
    65,
    66,
    67,
    68,
    69,
    70,
    71,
    72,
    73,
    74,
    75,
    76,
    77,
    78,
    79,
    80,
    81,
    82,
    83,
    84,
    85,
    86,
    87,
    88,
    89,
    90,
    91,
    92,
    93,
    94,
    95,
    96,
    97,
    98,
    99,
    100,
    101,
    102,
    103,
    104,
    105,
    106,
    107,
    108,
    109,
    110,
    111,
    112,
    113,
    114,
    115,
    116,
    117,
    118,
    119,
    120,
    121,
    122,
    123,
    124,
    125,
    126,
    127,
    128,
    129,
    130,
    131,
    132,
    133,
    134,
    135,
    136,
    137,
    138,
    139,
    140,
    141,
    142,
    143,
    144,
    145,
    146,
    147,
    148,
    149,
    150,
    151,
    152,
    153,
    154,
    155,
    156,
    157,
    158,
    159,
    160,
    161,
    162,
    163,
    164,
    165,
    166,
    167,
    168,
    169,
    170,
    171,
    172,
    173,
    174,
    175,
    176,
    177,
    178,
    179,
    180,
    181,
    182,
    183,
    184,
    185,
    186,
    187,
    188,
    189,
    190,
    191,
    192,
    193,
    194,
    195,
    196,
    197,
    198,
    199,
    200,
    201,
    202,
    203,
    204,
    205,
    206,
    207,
    208,
    209,
    210,
    211,
    212,
    213,
    214,
    215,
    216,
    217,
    218,
    219,
    220,
    221,
    222,
    223,
    224,
    225,
    226,
    227,
    228,
    229,
    230,
    231,
    232,
    233,
    234,
    235,
    236,
    237,
    238,
    239,
    240,
    241,
    242,
    243,
    244,
    245,
    246,
    247,
    248,
    249,
    250,
    251,
    252,
    253,
    254,
    255,
    256
   ],
   "AcquisitionTime": [
    "160007.500000",
    "160009.500000",
    "160011.500000",
    "160013.500000",
    "160015.500000",
    "160017.500000",
    "160019.500000",
    "160021.500000",
    "160023.500000",
    "160025.500000",
    "160027.500000",
    "160029.500000",
    "160031.500000",
    "160033.500000",
    "160035.500000",
    "160037.500000",
    "160039.500000",
    "160041.500000",
    "160043.500000",
    "160045.500000",
    "160047.500000",
    "160049.500000",
    "160051.500000",
    "160053.500000",
    "160055.500000",
    "160057.500000",
    "160059.500000",
    "160101.500000",
    "160103.500000",
    "160105.500000",
    "160107.500000",
    "160109.500000",
    "160111.500000",
    "160113.500000",
    "160115.500000",
    "160117.500000",
    "160119.500000",
    "160121.500000",
    "160123.500000",
    "160125.500000",
    "160127.500000",
    "160129.500000",
    "160131.500000",
    "160133.500000",
    "160135.500000",
    "160137.500000",
    "160139.500000",
    "160141.500000",
    "160143.500000",
    "160145.500000",
    "160147.500000",
    "160149.500000",
    "160151.500000",
    "160153.500000",
    "160155.500000",
    "160157.500000",
    "160159.500000",
    "160201.500000",
    "160203.500000",
    "160205.500000",
    "160207.500000",
    "160209.500000",
    "160211.500000",
    "160213.500000",
    "160215.500000",
    "160217.500000",
    "160219.500000",
    "160221.500000",
    "160223.500000",
    "160225.500000",
    "160227.500000",
    "160229.500000",
    "160231.500000",
    "160233.500000",
    "160235.500000",
    "160237.500000",
    "160239.500000",
    "160241.500000",
    "160243.500000",
    "160245.500000",
    "160247.500000",
    "160249.500000",
    "160251.500000",
    "160253.500000",
    "160255.500000",
    "160257.500000",
    "160259.500000",
    "160301.500000",
    "160303.500000",
    "160305.500000",
    "160307.500000",
    "160309.500000",
    "160311.500000",
    "160313.500000",
    "160315.500000",
    "160317.500000",
    "160319.500000",
    "160321.500000",
    "160323.500000",
    "160325.500000",
    "160327.500000",
    "160329.500000",
    "160331.500000",
    "160333.500000",
    "160335.500000",
    "160337.500000",
    "160339.500000",
    "160341.500000",
    "160343.500000",
    "160345.500000",
    "160347.500000",
    "160349.500000",
    "160351.500000",
    "160353.500000",
    "160355.500000",
    "160357.500000",
    "160359.500000",
    "160401.500000",
    "160403.500000",
    "160405.500000",
    "160407.500000",
    "160409.500000",
    "160411.500000",
    "160413.500000",
    "160415.500000",
    "160417.500000",
    "160419.500000",
    "160421.500000",
    "160423.500000",
    "160425.500000",
    "160427.500000",
    "160429.500000",
    "160431.500000",
    "160433.500000",
    "160435.500000",
    "160437.500000",
    "160439.500000",
    "160441.500000",
    "160443.500000",
    "160445.500000",
    "160447.500000",
    "160449.500000",
    "160451.500000",
    "160453.500000",
    "160455.500000",
    "160457.500000",
    "160459.500000",
    "160501.500000",
    "160503.500000",
    "160505.500000",
    "160507.500000",
    "160509.500000",
    "160511.500000",
    "160513.500000",
    "160515.500000",
    "160517.500000",
    "160519.500000",
    "160521.500000",
    "160523.500000",
    "160525.500000",
    "160527.500000",
    "160529.500000",
    "160531.500000",
    "160533.500000",
    "160535.500000",
    "160537.500000",
    "160539.500000",
    "160541.500000",
    "160543.500000",
    "160545.500000",
    "160547.500000",
    "160549.500000",
    "160551.500000",
    "160553.500000",
    "160555.500000",
    "160557.500000",
    "160559.500000",
    "160601.500000",
    "160603.500000",
    "160605.500000",
    "160607.500000",
    "160609.500000",
    "160611.500000",
    "160613.500000",
    "160615.500000",
    "160617.500000",
    "160619.500000",
    "160621.500000",
    "160623.500000",
    "160625.500000",
    "160627.500000",
    "160629.500000",
    "160631.500000",
    "160633.500000",
    "160635.500000",
    "160637.500000",
    "160639.500000",
    "160641.500000",
    "160643.500000",
    "160645.500000",
    "160647.500000",
    "160649.500000",
    "160651.500000",
    "160653.500000",
    "160655.500000",
    "160657.500000",
    "160659.500000",
    "160701.500000",
    "160703.500000",
    "160705.500000",
    "160707.500000",
    "160709.500000",
    "160711.500000",
    "160713.500000",
    "160715.500000",
    "160717.500000",
    "160719.500000",
    "160721.500000",
    "160723.500000",
    "160725.500000",
    "160727.500000",
    "160729.500000",
    "160731.500000",
    "160733.500000",
    "160735.500000",
    "160737.500000",
    "160739.500000",
    "160741.500000",
    "160743.500000",
    "160745.500000",
    "160747.500000",
    "160749.500000",
    "160751.500000",
    "160753.500000",
    "160755.500000",
    "160757.500000",
    "160759.500000",
    "160801.500000",
    "160803.500000",
    "160805.500000",
    "160807.500000",
    "160809.500000",
    "160811.500000",
    "160813.500000",
    "160815.500000",
    "160817.500000",
    "160819.500000",
    "160821.500000",
    "160823.500000",
    "160825.500000",
    "160827.500000",
    "160829.500000",
    "160831.500000",
    "160833.500000",
    "160835.500000",
    "160837.500000"
   ],
   "ContentTime": [
    "160010.317000",
    "160011.812000",
    "160013.811000",
    "160015.811000",
    "160017.811000",
    "160019.811000",
    "160021.811000",
    "160024.312000",
    "160025.812000",
    "160027.812000",
    "160029.812000",
    "160031.811000",
    "160033.811000",
    "160035.811000",
    "160038.311000",
    "160039.811000",
    "160041.812000",
    "160043.812000",
    "160045.812000",
    "160047.811000",
    "160049.812000",
    "160052.312000",
    "160054.312000",
    "160055.811000",
    "160057.811000",
    "160059.813000",
    "160101.813000",
    "160103.812000",
    "160105.811000",
    "160108.312000",
    "160109.812000",
    "160112.311000",
    "160113.812000",
    "160115.812000",
    "160118.313000",
    "160119.812000",
    "160121.813000",
    "160123.811000",
    "160126.311000",
    "160127.811000",
    "160130.311000",
    "160131.811000",
    "160134.312000",
    "160136.312000",
    "160137.813000",
    "160139.812000",
    "160141.811000",
    "160143.811000",
    "160146.311000",
    "160147.811000",
    "160150.311000",
    "160151.812000",
    "160153.812000",
    "160155.812000",
    "160157.812000",
    "160159.811000",
    "160202.312000",
    "160203.812000",
    "160205.811000",
    "160207.811000",
    "160209.813000",
    "160212.312000",
    "160214.312000",
    "160216.312000",
    "160217.812000",
    "160219.812000",
    "160221.812000",
    "160224.313000",
    "160225.811000",
    "160227.813000",
    "160229.812000",
    "160231.812000",
    "160233.811000",
    "160235.811000",
    "160237.812000",
    "160239.812000",
    "160242.312000",
    "160243.812000",
    "160245.812000",
    "160247.812000",
    "160249.812000",
    "160251.811000",
    "160253.811000",
    "160256.311000",
    "160257.811000",
    "160259.811000",
    "160302.312000",
    "160303.812000",
    "160305.812000",
    "160308.312000",
    "160310.311000",
    "160311.811000",
    "160313.811000",
    "160315.812000",
    "160317.812000",
    "160319.813000",
    "160321.813000",
    "160323.813000",
    "160325.812000",
    "160327.812000",
    "160329.811000",
    "160331.811000",
    "160333.811000",
    "160336.312000",
    "160338.313000",
    "160339.813000",
    "160341.812000",
    "160344.311000",
    "160345.811000",
    "160347.812000",
    "160349.812000",
    "160352.312000",
    "160353.811000",
    "160355.812000",
    "160357.812000",
    "160359.813000",
    "160401.812000",
    "160403.811000",
    "160406.311000",
    "160407.812000",
    "160409.811000",
    "160411.812000",
    "160413.812000",
    "160416.313000",
    "160417.812000",
    "160419.811000",
    "160421.811000",
    "160424.312000",
    "160425.811000",
    "160427.811000",
    "160430.312000",
    "160431.812000",
    "160433.812000",
    "160435.812000",
    "160438.311000",
    "160440.311000",
    "160441.811000",
    "160443.811000",
    "160445.811000",
    "160447.813000",
    "160449.812000",
    "160451.813000",
    "160454.312000",
    "160455.812000",
    "160457.811000",
    "160500.311000",
    "160502.312000",
    "160503.811000",
    "160505.812000",
    "160508.312000",
    "160510.312000",
    "160511.811000",
    "160513.812000",
    "160515.812000",
    "160518.312000",
    "160519.811000",
    "160521.813000",
    "160523.812000",
    "160525.813000",
    "160528.311000",
    "160529.812000",
    "160531.812000",
    "160533.811000",
    "160535.812000",
    "160538.312000",
    "160539.812000",
    "160541.813000",
    "160543.812000",
    "160545.811000",
    "160547.811000",
    "160549.812000",
    "160551.811000",
    "160554.311000",
    "160556.312000",
    "160557.812000",
    "160600.312000",
    "160601.813000",
    "160603.811000",
    "160605.812000",
    "160607.811000",
    "160609.812000",
    "160611.811000",
    "160613.813000",
    "160615.813000",
    "160618.312000",
    "160619.812000",
    "160622.311000",
    "160623.811000",
    "160626.311000",
    "160627.811000",
    "160629.811000",
    "160631.813000",
    "160634.313000",
    "160635.813000",
    "160637.811000",
    "160640.312000",
    "160641.812000",
    "160643.811000",
    "160645.823000",
    "160648.312000",
    "160649.812000",
    "160651.812000",
    "160653.813000",
    "160655.812000",
    "160657.812000",
    "160659.812000",
    "160701.812000",
    "160704.312000",
    "160705.812000",
    "160707.813000",
    "160709.813000",
    "160712.313000",
    "160713.812000",
    "160715.812000",
    "160718.312000",
    "160719.812000",
    "160722.311000",
    "160723.812000",
    "160726.313000",
    "160728.313000",
    "160729.812000",
    "160731.812000",
    "160733.811000",
    "160735.812000",
    "160738.312000",
    "160740.312000",
    "160742.312000",
    "160743.812000",
    "160745.813000",
    "160747.811000",
    "160749.811000",
    "160752.312000",
    "160754.311000",
    "160755.812000",
    "160757.811000",
    "160759.813000",
    "160801.813000",
    "160804.313000",
    "160805.812000",
    "160808.312000",
    "160809.812000",
    "160811.812000",
    "160813.811000",
    "160816.313000",
    "160817.813000",
    "160819.813000",
    "160821.812000",
    "160823.811000",
    "160826.312000",
    "160827.812000",
    "160829.812000",
    "160831.812000",
    "160834.312000",
    "160835.813000",
    "160837.813000",
    "160839.921000"
   ],
   "InstanceCreationTime": [
    "160010.317000",
    "160011.812000",
    "160013.811000",
    "160015.811000",
    "160017.811000",
    "160019.811000",
    "160021.811000",
    "160024.312000",
    "160025.812000",
    "160027.812000",
    "160029.812000",
    "160031.811000",
    "160033.811000",
    "160035.811000",
    "160038.311000",
    "160039.811000",
    "160041.812000",
    "160043.812000",
    "160045.812000",
    "160047.811000",
    "160049.812000",
    "160052.312000",
    "160054.312000",
    "160055.811000",
    "160057.811000",
    "160059.813000",
    "160101.813000",
    "160103.812000",
    "160105.811000",
    "160108.312000",
    "160109.812000",
    "160112.311000",
    "160113.812000",
    "160115.812000",
    "160118.313000",
    "160119.812000",
    "160121.813000",
    "160123.811000",
    "160126.311000",
    "160127.811000",
    "160130.311000",
    "160131.811000",
    "160134.312000",
    "160136.312000",
    "160137.813000",
    "160139.812000",
    "160141.811000",
    "160143.811000",
    "160146.311000",
    "160147.811000",
    "160150.311000",
    "160151.812000",
    "160153.812000",
    "160155.812000",
    "160157.812000",
    "160159.811000",
    "160202.312000",
    "160203.812000",
    "160205.811000",
    "160207.811000",
    "160209.813000",
    "160212.312000",
    "160214.312000",
    "160216.312000",
    "160217.812000",
    "160219.812000",
    "160221.812000",
    "160224.313000",
    "160225.811000",
    "160227.813000",
    "160229.812000",
    "160231.812000",
    "160233.811000",
    "160235.811000",
    "160237.812000",
    "160239.812000",
    "160242.312000",
    "160243.812000",
    "160245.812000",
    "160247.812000",
    "160249.812000",
    "160251.811000",
    "160253.811000",
    "160256.311000",
    "160257.811000",
    "160259.811000",
    "160302.312000",
    "160303.812000",
    "160305.812000",
    "160308.312000",
    "160310.311000",
    "160311.811000",
    "160313.811000",
    "160315.812000",
    "160317.812000",
    "160319.813000",
    "160321.813000",
    "160323.813000",
    "160325.812000",
    "160327.812000",
    "160329.811000",
    "160331.811000",
    "160333.811000",
    "160336.312000",
    "160338.313000",
    "160339.813000",
    "160341.812000",
    "160344.311000",
    "160345.811000",
    "160347.812000",
    "160349.812000",
    "160352.312000",
    "160353.811000",
    "160355.812000",
    "160357.812000",
    "160359.813000",
    "160401.812000",
    "160403.811000",
    "160406.311000",
    "160407.812000",
    "160409.811000",
    "160411.812000",
    "160413.812000",
    "160416.313000",
    "160417.812000",
    "160419.811000",
    "160421.811000",
    "160424.312000",
    "160425.811000",
    "160427.811000",
    "160430.312000",
    "160431.812000",
    "160433.812000",
    "160435.812000",
    "160438.311000",
    "160440.311000",
    "160441.811000",
    "160443.811000",
    "160445.811000",
    "160447.813000",
    "160449.812000",
    "160451.813000",
    "160454.312000",
    "160455.812000",
    "160457.811000",
    "160500.311000",
    "160502.312000",
    "160503.811000",
    "160505.812000",
    "160508.312000",
    "160510.312000",
    "160511.811000",
    "160513.812000",
    "160515.812000",
    "160518.312000",
    "160519.811000",
    "160521.813000",
    "160523.812000",
    "160525.813000",
    "160528.311000",
    "160529.812000",
    "160531.812000",
    "160533.811000",
    "160535.812000",
    "160538.312000",
    "160539.812000",
    "160541.813000",
    "160543.812000",
    "160545.811000",
    "160547.811000",
    "160549.812000",
    "160551.811000",
    "160554.311000",
    "160556.312000",
    "160557.812000",
    "160600.312000",
    "160601.813000",
    "160603.811000",
    "160605.812000",
    "160607.811000",
    "160609.812000",
    "160611.811000",
    "160613.813000",
    "160615.813000",
    "160618.312000",
    "160619.812000",
    "160622.311000",
    "160623.811000",
    "160626.311000",
    "160627.811000",
    "160629.811000",
    "160631.813000",
    "160634.313000",
    "160635.813000",
    "160637.811000",
    "160640.312000",
    "160641.812000",
    "160643.811000",
    "160645.823000",
    "160648.312000",
    "160649.812000",
    "160651.812000",
    "160653.813000",
    "160655.812000",
    "160657.812000",
    "160659.812000",
    "160701.812000",
    "160704.312000",
    "160705.812000",
    "160707.813000",
    "160709.813000",
    "160712.313000",
    "160713.812000",
    "160715.812000",
    "160718.312000",
    "160719.812000",
    "160722.311000",
    "160723.812000",
    "160726.313000",
    "160728.313000",
    "160729.812000",
    "160731.812000",
    "160733.811000",
    "160735.812000",
    "160738.312000",
    "160740.312000",
    "160742.312000",
    "160743.812000",
    "160745.813000",
    "160747.811000",
    "160749.811000",
    "160752.312000",
    "160754.311000",
    "160755.812000",
    "160757.811000",
    "160759.813000",
    "160801.813000",
    "160804.313000",
    "160805.812000",
    "160808.312000",
    "160809.812000",
    "160811.812000",
    "160813.811000",
    "160816.313000",
    "160817.813000",
    "160819.813000",
    "160821.812000",
    "160823.811000",
    "160826.312000",
    "160827.812000",
    "160829.812000",
    "160831.812000",
    "160834.312000",
    "160835.813000",
    "160837.813000",
    "160839.921000"
   ],
   "InstanceNumber": [
    1,
    2,
    3,
    4,
    5,
    6,
    7,
    8,
    9,
    10,
    11,
    12,
    13,
    14,
    15,
    16,
    17,
    18,
    19,
    20,
    21,
    22,
    23,
    24,
    25,
    26,
    27,
    28,
    29,
    30,
    31,
    32,
    33,
    34,
    35,
    36,
    37,
    38,
    39,
    40,
    41,
    42,
    43,
    44,
    45,
    46,
    47,
    48,
    49,
    50,
    51,
    52,
    53,
    54,
    55,
    56,
    57,
    58,
    59,
    60,
    61,
    62,
    63,
    64,
    65,
    66,
    67,
    68,
    69,
    70,
    71,
    72,
    73,
    74,
    75,
    76,
    77,
    78,
    79,
    80,
    81,
    82,
    83,
    84,
    85,
    86,
    87,
    88,
    89,
    90,
    91,
    92,
    93,
    94,
    95,
    96,
    97,
    98,
    99,
    100,
    101,
    102,
    103,
    104,
    105,
    106,
    107,
    108,
    109,
    110,
    111,
    112,
    113,
    114,
    115,
    116,
    117,
    118,
    119,
    120,
    121,
    122,
    123,
    124,
    125,
    126,
    127,
    128,
    129,
    130,
    131,
    132,
    133,
    134,
    135,
    136,
    137,
    138,
    139,
    140,
    141,
    142,
    143,
    144,
    145,
    146,
    147,
    148,
    149,
    150,
    151,
    152,
    153,
    154,
    155,
    156,
    157,
    158,
    159,
    160,
    161,
    162,
    163,
    164,
    165,
    166,
    167,
    168,
    169,
    170,
    171,
    172,
    173,
    174,
    175,
    176,
    177,
    178,
    179,
    180,
    181,
    182,
    183,
    184,
    185,
    186,
    187,
    188,
    189,
    190,
    191,
    192,
    193,
    194,
    195,
    196,
    197,
    198,
    199,
    200,
    201,
    202,
    203,
    204,
    205,
    206,
    207,
    208,
    209,
    210,
    211,
    212,
    213,
    214,
    215,
    216,
    217,
    218,
    219,
    220,
    221,
    222,
    223,
    224,
    225,
    226,
    227,
    228,
    229,
    230,
    231,
    232,
    233,
    234,
    235,
    236,
    237,
    238,
    239,
    240,
    241,
    242,
    243,
    244,
    245,
    246,
    247,
    248,
    249,
    250,
    251,
    252,
    253,
    254,
    255,
    256
   ],
   "LargestImagePixelValue": [
    2844,
    3115,
    2758,
    2764,
    3128,
    2769,
    2768,
    2789,
    2799,
    2825,
    3003,
    2794,
    2808,
    2801,
    2803,
    3133,
    2800,
    2826,
    2825,
    3202,
    2793,
    2816,
    2796,
    2842,
    2809,
    2855,
    2807,
    2882,
    3104,
    2860,
    3070,
    2869,
    2884,
    2878,
    2980,
    2914,
    2869,
    2893,
    2862,
    2841,
    2881,
    2864,
    2855,
    2862,
    2828,
    2981,
    2865,
    2857,
    2822,
    3035,
    2844,
    2865,
    2851,
    2974,
    2831,
    3162,
    2859,
    2853,
    3095,
    2846,
    2980,
    2865,
    2866,
    3042,
    2815,
    2943,
    2810,
    2790,
    2850,
    2834,
    2856,
    2864,
    2860,
    3151,
    2894,
    2818,
    2829,
    2870,
    2872,
    2908,
    2862,
    2951,
    2863,
    2928,
    2824,
    2837,
    2819,
    2868,
    2867,
    2876,
    2863,
    3063,
    2864,
    2890,
    2899,
    2863,
    2863,
    2844,
    2810,
    2823,
    2844,
    2852,
    2864,
    2860,
    2839,
    2835,
    2853,
    2862,
    2857,
    2901,
    2886,
    2899,
    2886,
    2857,
    2835,
    2864,
    2845,
    3166,
    2882,
    2962,
    2885,
    2843,
    2867,
    2855,
    3017,
    2831,
    3002,
    2871,
    2848,
    2864,
    2854,
    2850,
    2860,
    2824,
    2871,
    2859,
    2844,
    2862,
    2854,
    2857,
    2851,
    2865,
    2945,
    2840,
    2860,
    2830,
    2867,
    2892,
    2856,
    2869,
    2866,
    2853,
    2868,
    2866,
    2841,
    2871,
    2969,
    2853,
    2871,
    2871,
    2890,
    2832,
    2882,
    2867,
    2856,
    2832,
    2818,
    2819,
    2830,
    2845,
    2861,
    2851,
    2840,
    2847,
    2834,
    2843,
    2887,
    2856,
    2837,
    2835,
    2822,
    2860,
    2822,
    2834,
    2844,
    2816,
    2826,
    2861,
    2826,
    2817,
    2878,
    2818,
    2861,
    2840,
    2834,
    2841,
    2805,
    2838,
    2839,
    2866,
    2812,
    2843,
    2821,
    2820,
    2820,
    2839,
    3078,
    2858,
    2803,
    2826,
    2820,
    2871,
    2823,
    3015,
    2808,
    2808,
    2798,
    2854,
    2822,
    2828,
    2824,
    2795,
    2828,
    2856,
    2773,
    2772,
    2779,
    2826,
    2803,
    2809,
    2880,
    2834,
    2829,
    2833,
    2810,
    2810,
    2800,
    2822,
    2794,
    2792,
    2804,
    2814,
    2829,
    2785,
    2820,
    2830,
    2778,
    2824,
    2846,
    2847,
    2795,
    2818,
    2818,
    2817,
    2838,
    2825
   ],
   "WindowCenter": [
    757.0,
    756.0,
    752.0,
    752.0,
    755.0,
    751.0,
    751.0,
    751.0,
    752.0,
    752.0,
    754.0,
    751.0,
    751.0,
    753.0,
    751.0,
    754.0,
    751.0,
    752.0,
    753.0,
    757.0,
    753.0,
    753.0,
    753.0,
    753.0,
    753.0,
    753.0,
    752.0,
    752.0,
    754.0,
    752.0,
    754.0,
    752.0,
    753.0,
    753.0,
    755.0,
    755.0,
    753.0,
    756.0,
    753.0,
    750.0,
    754.0,
    753.0,
    756.0,
    754.0,
    753.0,
    753.0,
    755.0,
    756.0,
    754.0,
    754.0,
    754.0,
    754.0,
    754.0,
    753.0,
    754.0,
    754.0,
    752.0,
    754.0,
    755.0,
    754.0,
    755.0,
    755.0,
    755.0,
    756.0,
    754.0,
    755.0,
    754.0,
    751.0,
    751.0,
    754.0,
    754.0,
    753.0,
    753.0,
    756.0,
    755.0,
    754.0,
    754.0,
    754.0,
    754.0,
    752.0,
    755.0,
    755.0,
    755.0,
    755.0,
    753.0,
    753.0,
    756.0,
    752.0,
    754.0,
    753.0,
    753.0,
    752.0,
    752.0,
    757.0,
    756.0,
    754.0,
    753.0,
    753.0,
    753.0,
    753.0,
    754.0,
    753.0,
    753.0,
    754.0,
    755.0,
    755.0,
    756.0,
    754.0,
    757.0,
    755.0,
