{
 "AcquisitionMatrixPE": 100,
 "AcquisitionNumber": 1,
 "AcquisitionTime": "15:22:29.532500",
 "BandwidthPerPixelPhaseEncode": 18.519,
 "BaseResolution": 100,
 "BodyPartExamined": "BRAIN",
 "ConsistencyInfo": "N4_VE11C_LATEST_20160120",
 "ConversionSoftware": "dcm2niix",
 "ConversionSoftwareVersion": "v1.0.20180622 GCC4.9.2",
 "DerivedVendorReportedEchoSpacing": 0.000539986,
 "DeviceSerialNumber": "166078",
 "DwellTime": 2.1e-06,
 "EchoTime": 0.034,
 "EchoTrainLength": 100,
 "EffectiveEchoSpacing": 0.000539986,
 "FlipAngle": 90,
 "ImageOrientationPatientDICOM": [
  1,
  0.000106318,
  0.000574268,
  4.88817e-08,
  0.983275,
  -0.182125
 ],
 "ImageType": [
  "ORIGINAL",
  "PRIMARY",
  "M",
  "ND",
  "MOSAIC"
 ],
 "InPlanePhaseEncodingDirectionDICOM": "COL",
 "InstitutionAddress": "Street_StreetNo_Bei_Jing_District_CN_ZIP",
 "InstitutionName": "BeiJing_Normal_University",
 "InstitutionalDepartmentName": "Department",
 "MRAcquisitionType": "2D",
 "MagneticFieldStrength": 3,
 "Manufacturer": "Siemens",
 "ManufacturersModelName": "Prisma",
 "Modality": "MR",
 "MultibandAccelerationFactor": 3,
 "PartialFourier": 1,
 "PatientPosition": "HFS",
 "PercentPhaseFOV": 100,
 "PhaseEncodingDirection": "j-",
 "PhaseEncodingSteps": 100,
 "PhaseResolution": 1,
 "PixelBandwidth": 2380,
 "ProcedureStepDescription": "BNU_P2018_64CH_Zhen.ZongLei",
 "ProtocolName": "bold_100x100_s3_2x2x2_static_256",
 "PulseSequenceDetails": "%SiemensSeq%_ep2d_bold",
 "ReceiveCoilActiveElements": "HC1-7;NC1",
 "ReceiveCoilName": "HeadNeck_64",
 "ReconMatrixPE": 100,
 "RepetitionTime": 2,
 "SAR": 0.0640485,
 "ScanOptions": "FS",
 "ScanningSequence": "EP",
 "SequenceName": "_epfid2d1_100",
 "SequenceVariant": "SK",
 "SeriesDescription": "bold_100x100_s3_2x2x2_static_256",
 "SeriesNumber": 3,
 "ShimSetting": [
  -5461,
  -11488,
  -1290,
  294,
  -94,
  -291,
  -83,
  26
 ],
 "SliceThickness": 2,
 "SliceTiming": [
  1.485,
  0,
  0.99,
  0.0825,
  1.0725,
  0.165,
  1.155,
  0.2475,
  1.2375,
  0.33,
  1.32,
  0.4125,
  1.4025,
  0.5775,
  1.5675,
  0.66,
  1.65,
  0.7425,
  1.7325,
  0.825,
  1.815,
  0.9075,
  1.8975,
  0.495,
  1.485,
  0,
  0.99,
  0.0825,
  1.0725,
  0.165,
  1.155,
  0.2475,
  1.2375,
  0.33,
  1.32,
  0.4125,
  1.4025,
  0.5775,
  1.5675,
  0.66,
  1.65,
  0.7425,
  1.7325,
  0.825,
  1.815,
  0.9075,
  1.8975,
  0.495,
  1.485,
  0,
  0.99,
  0.0825,
  1.0725,
  0.165,
  1.155,
  0.2475,
  1.2375,
  0.33,
  1.32,
  0.4125,
  1.4025,
  0.5775,
  1.5675,
  0.66,
  1.65,
  0.7425,
  1.7325,
  0.825,
  1.815,
  0.9075,
  1.8975,
  0.495
 ],
 "SoftwareVersions": "syngo_MR_E11",
 "SpacingBetweenSlices": 2,
 "StationName": "AWP166078",
 "TaskName": "imagenet",
 "TotalReadoutTime": 0.0534586,
 "TxRefAmp": 235.543,
 "dcmmeta_affine": [
  [
   -1.9999996423721313,
   9.77634542209671e-08,
   0.0011680538300424814,
   100.00170135498047
  ],
  [
   -0.0002126351319020614,
   1.9665509462356567,
   -0.36424902081489563,
   -77.9105453491211
  ],
  [
   0.0011485364520922303,
   0.3642490804195404,
   1.966550588607788,
   -103.8703384399414
  ],
  [
   0.0,
   0.0,
   0.0,
   1.0
  ]
 ],
 "dcmmeta_reorient_transform": [
  [
   0.0,
   -1.0,
   0.0,
   99.0
  ],
  [
   1.0,
   0.0,
   0.0,
   0.0
  ],
  [
   0.0,
   0.0,
   1.0,
   0.0
  ],
  [
   0.0,
   0.0,
   0.0,
   1.0
  ]
 ],
 "dcmmeta_shape": [
  100,
  100,
  72,
  256
 ],
 "dcmmeta_slice_dim": 2,
 "dcmmeta_version": 0.6,
 "global": {
  "const": {
   "AcquisitionMatrix": [
    100,
    0,
    0,
    100
   ],
   "AngioFlag": "N",
   "BitsAllocated": 16,
   "BitsStored": 12,
   "BodyPartExamined": "BRAIN",
   "Columns": 900,
   "EchoNumbers": 1,
   "EchoTime": 34.0,
   "EchoTrainLength": 100,
   "FlipAngle": 90.0,
   "HighBit": 11,
   "ImageOrientationPatient": [
    0.99999982945628,
    0.00010631756889,
    0.00057426822051,
    4.8881728e-08,
    0.98327546982895,
    -0.1821245464858
   ],
   "ImagePositionPatient": [
    -900.00161744891,
    -903.48342799399,
    77.43054401784
   ],
   "ImageType": [
    "ORIGINAL",
    "PRIMARY",
    "M",
    "ND",
    "MOSAIC"
   ],
   "ImagedNucleus": "1H",
   "ImagingFrequency": 123.257739,
   "InPlanePhaseEncodingDirection": "COL",
   "MRAcquisitionType": "2D",
   "MagneticFieldStrength": 3.0,
   "Manufacturer": "SIEMENS",
   "ManufacturerModelName": "Prisma",
   "Modality": "MR",
   "NumberOfAverages": 1.0,
   "NumberOfPhaseEncodingSteps": 100,
   "PercentPhaseFieldOfView": 100.0,
   "PercentSampling": 100.0,
   "PerformedProcedureStepStartTime": "151951.028000",
   "PhotometricInterpretation": "MONOCHROME2",
   "PixelBandwidth": 2380.0,
   "PixelRepresentation": 0,
   "PixelSpacing": [
    2.0,
    2.0
   ],
   "ProtocolName": "bold_100x100_s3_2x2x2_static_256",
   "RepetitionTime": 2000.0,
   "Rows": 900,
   "SAR": 0.06404845381537,
   "SamplesPerPixel": 1,
   "ScanOptions": "FS",
   "ScanningSequence": "EP",
   "SequenceName": "*epfid2d1_100",
   "SequenceVariant": "SK",
   "SeriesDescription": "bold_100x100_s3_2x2x2_static_256",
   "SeriesNumber": 3,
   "SeriesTime": "152231.971000",
   "SliceLocation": -87.885314831752,
   "SliceThickness": 2.0,
   "SmallestImagePixelValue": 0,
   "SoftwareVersions": "syngo MR E11",
   "SpacingBetweenSlices": 1.9999999783334,
   "SpecificCharacterSet": "ISO_IR 100",
   "StudyID": "1",
   "StudyTime": "151950.955000",
   "TransmitCoilName": "Body",
   "VariableFlipAngleFlag": "N",
   "WindowCenterWidthExplanation": "Algo1",
   "dBdt": 0.0
  },
  "slices": {}
 },
 "time": {
  "samples": {
   "AcquisitionNumber": [
    1,
    2,
    3,
    4,
    5,
    6,
    7,
    8,
    9,
    10,
    11,
    12,
    13,
    14,
    15,
    16,
    17,
    18,
    19,
    20,
    21,
    22,
    23,
    24,
    25,
    26,
    27,
    28,
    29,
    30,
    31,
    32,
    33,
    34,
    35,
    36,
    37,
    38,
    39,
    40,
    41,
    42,
    43,
    44,
    45,
    46,
    47,
    48,
    49,
    50,
    51,
    52,
    53,
    54,
    55,
    56,
    57,
    58,
    59,
    60,
    61,
    62,
    63,
    64,
    65,
    66,
    67,
    68,
    69,
    70,
    71,
    72,
    73,
    74,
    75,
    76,
    77,
    78,
    79,
    80,
    81,
    82,
    83,
    84,
    85,
    86,
    87,
    88,
    89,
    90,
    91,
    92,
    93,
    94,
    95,
    96,
    97,
    98,
    99,
    100,
    101,
    102,
    103,
    104,
    105,
    106,
    107,
    108,
    109,
    110,
    111,
    112,
    113,
    114,
    115,
    116,
    117,
    118,
    119,
    120,
    121,
    122,
    123,
    124,
    125,
    126,
    127,
    128,
    129,
    130,
    131,
    132,
    133,
    134,
    135,
    136,
    137,
    138,
    139,
    140,
    141,
    142,
    143,
    144,
    145,
    146,
    147,
    148,
    149,
    150,
    151,
    152,
    153,
    154,
    155,
    156,
    157,
    158,
    159,
    160,
    161,
    162,
    163,
    164,
    165,
    166,
    167,
    168,
    169,
    170,
    171,
    172,
    173,
    174,
    175,
    176,
    177,
    178,
    179,
    180,
    181,
    182,
    183,
    184,
    185,
    186,
    187,
    188,
    189,
    190,
    191,
    192,
    193,
    194,
    195,
    196,
    197,
    198,
    199,
    200,
    201,
    202,
    203,
    204,
    205,
    206,
    207,
    208,
    209,
    210,
    211,
    212,
    213,
    214,
    215,
    216,
    217,
    218,
    219,
    220,
    221,
    222,
    223,
    224,
    225,
    226,
    227,
    228,
    229,
    230,
    231,
    232,
    233,
    234,
    235,
    236,
    237,
    238,
    239,
    240,
    241,
    242,
    243,
    244,
    245,
    246,
    247,
    248,
    249,
    250,
    251,
    252,
    253,
    254,
    255,
    256
   ],
   "AcquisitionTime": [
    "152229.532500",
    "152231.532500",
    "152233.532500",
    "152235.532500",
    "152237.532500",
    "152239.532500",
    "152241.532500",
    "152243.532500",
    "152245.532500",
    "152247.532500",
    "152249.532500",
    "152251.532500",
    "152253.532500",
    "152255.532500",
    "152257.532500",
    "152259.532500",
    "152301.532500",
    "152303.532500",
    "152305.532500",
    "152307.532500",
    "152309.532500",
    "152311.532500",
    "152313.532500",
    "152315.532500",
    "152317.532500",
    "152319.532500",
    "152321.532500",
    "152323.532500",
    "152325.532500",
    "152327.532500",
    "152329.532500",
    "152331.532500",
    "152333.532500",
    "152335.532500",
    "152337.532500",
    "152339.532500",
    "152341.532500",
    "152343.532500",
    "152345.532500",
    "152347.532500",
    "152349.532500",
    "152351.532500",
    "152353.532500",
    "152355.532500",
    "152357.532500",
    "152359.532500",
    "152401.532500",
    "152403.532500",
    "152405.532500",
    "152407.532500",
    "152409.532500",
    "152411.532500",
    "152413.532500",
    "152415.532500",
    "152417.532500",
    "152419.532500",
    "152421.532500",
    "152423.532500",
    "152425.532500",
    "152427.532500",
    "152429.532500",
    "152431.532500",
    "152433.532500",
    "152435.532500",
    "152437.532500",
    "152439.532500",
    "152441.532500",
    "152443.532500",
    "152445.532500",
    "152447.532500",
    "152449.532500",
    "152451.532500",
    "152453.532500",
    "152455.532500",
    "152457.532500",
    "152459.532500",
    "152501.532500",
    "152503.532500",
    "152505.532500",
    "152507.532500",
    "152509.532500",
    "152511.532500",
    "152513.532500",
    "152515.532500",
    "152517.532500",
    "152519.532500",
    "152521.532500",
    "152523.532500",
    "152525.532500",
    "152527.532500",
    "152529.532500",
    "152531.532500",
    "152533.532500",
    "152535.532500",
    "152537.532500",
    "152539.532500",
    "152541.532500",
    "152543.532500",
    "152545.532500",
    "152547.532500",
    "152549.532500",
    "152551.532500",
    "152553.532500",
    "152555.532500",
    "152557.532500",
    "152559.532500",
    "152601.532500",
    "152603.532500",
    "152605.532500",
    "152607.532500",
    "152609.532500",
    "152611.532500",
    "152613.532500",
    "152615.532500",
    "152617.532500",
    "152619.532500",
    "152621.532500",
    "152623.532500",
    "152625.532500",
    "152627.532500",
    "152629.532500",
    "152631.532500",
    "152633.532500",
    "152635.532500",
    "152637.532500",
    "152639.532500",
    "152641.532500",
    "152643.532500",
    "152645.532500",
    "152647.532500",
    "152649.532500",
    "152651.532500",
    "152653.532500",
    "152655.532500",
    "152657.532500",
    "152659.532500",
    "152701.532500",
    "152703.532500",
    "152705.532500",
    "152707.532500",
    "152709.532500",
    "152711.532500",
    "152713.532500",
    "152715.532500",
    "152717.532500",
    "152719.532500",
    "152721.532500",
    "152723.532500",
    "152725.532500",
    "152727.532500",
    "152729.532500",
    "152731.532500",
    "152733.532500",
    "152735.532500",
    "152737.532500",
    "152739.532500",
    "152741.532500",
    "152743.532500",
    "152745.532500",
    "152747.532500",
    "152749.532500",
    "152751.532500",
    "152753.532500",
    "152755.532500",
    "152757.532500",
    "152759.532500",
    "152801.532500",
    "152803.532500",
    "152805.532500",
    "152807.532500",
    "152809.532500",
    "152811.532500",
    "152813.532500",
    "152815.532500",
    "152817.532500",
    "152819.532500",
    "152821.532500",
    "152823.532500",
    "152825.532500",
    "152827.532500",
    "152829.532500",
    "152831.532500",
    "152833.532500",
    "152835.532500",
    "152837.532500",
    "152839.532500",
    "152841.532500",
    "152843.532500",
    "152845.532500",
    "152847.532500",
    "152849.532500",
    "152851.532500",
    "152853.532500",
    "152855.532500",
    "152857.532500",
    "152859.532500",
    "152901.532500",
    "152903.532500",
    "152905.532500",
    "152907.532500",
    "152909.532500",
    "152911.532500",
    "152913.532500",
    "152915.532500",
    "152917.532500",
    "152919.532500",
    "152921.532500",
    "152923.532500",
    "152925.532500",
    "152927.532500",
    "152929.532500",
    "152931.532500",
    "152933.532500",
    "152935.532500",
    "152937.532500",
    "152939.532500",
    "152941.532500",
    "152943.532500",
    "152945.532500",
    "152947.532500",
    "152949.532500",
    "152951.532500",
    "152953.532500",
    "152955.532500",
    "152957.532500",
    "152959.532500",
    "153001.532500",
    "153003.532500",
    "153005.532500",
    "153007.532500",
    "153009.532500",
    "153011.532500",
    "153013.532500",
    "153015.532500",
    "153017.532500",
    "153019.532500",
    "153021.532500",
    "153023.532500",
    "153025.532500",
    "153027.532500",
    "153029.532500",
    "153031.532500",
    "153033.532500",
    "153035.532500",
    "153037.532500",
    "153039.532500",
    "153041.532500",
    "153043.532500",
    "153045.532500",
    "153047.532500",
    "153049.532500",
    "153051.532500",
    "153053.532500",
    "153055.532500",
    "153057.532500",
    "153059.532500"
   ],
   "ContentTime": [
    "152231.975000",
    "152233.470000",
    "152235.470000",
    "152237.470000",
    "152239.470000",
    "152241.470000",
    "152243.470000",
    "152245.469000",
    "152247.469000",
    "152249.470000",
    "152251.470000",
    "152253.470000",
    "152255.470000",
    "152257.471000",
    "152259.470000",
    "152301.469000",
    "152303.469000",
    "152305.470000",
    "152307.470000",
    "152309.470000",
    "152311.470000",
    "152313.471000",
    "152315.470000",
    "152317.470000",
    "152319.469000",
    "152321.470000",
    "152323.469000",
    "152325.471000",
    "152327.471000",
    "152329.471000",
    "152331.470000",
    "152333.470000",
    "152335.470000",
    "152337.470000",
    "152339.470000",
    "152341.470000",
    "152343.471000",
    "152345.471000",
    "152347.470000",
    "152349.471000",
    "152351.470000",
    "152353.471000",
    "152355.469000",
    "152357.469000",
    "152359.470000",
    "152401.471000",
    "152403.471000",
    "152405.471000",
    "152407.470000",
    "152409.470000",
    "152411.469000",
    "152413.470000",
    "152415.470000",
    "152417.470000",
    "152419.470000",
    "152421.471000",
    "152423.471000",
    "152425.470000",
    "152427.470000",
    "152429.469000",
    "152431.470000",
    "152433.469000",
    "152435.471000",
    "152437.470000",
    "152439.471000",
    "152441.470000",
    "152443.471000",
    "152445.470000",
    "152447.469000",
    "152449.469000",
    "152451.470000",
    "152453.470000",
    "152455.470000",
    "152457.471000",
    "152459.470000",
    "152501.471000",
    "152503.470000",
    "152505.470000",
    "152507.470000",
    "152509.471000",
    "152511.471000",
    "152513.470000",
    "152515.471000",
    "152517.471000",
    "152519.470000",
    "152521.469000",
    "152523.470000",
    "152525.469000",
    "152527.470000",
    "152529.470000",
    "152531.470000",
    "152533.471000",
    "152535.470000",
    "152537.470000",
    "152539.469000",
    "152541.470000",
    "152543.469000",
    "152545.470000",
    "152547.471000",
    "152549.470000",
    "152551.470000",
    "152553.470000",
    "152555.470000",
    "152557.469000",
    "152559.470000",
    "152601.471000",
    "152603.471000",
    "152605.471000",
    "152607.470000",
    "152609.470000",
    "152611.471000",
    "152613.471000",
    "152615.469000",
    "152617.469000",
    "152619.470000",
    "152621.471000",
    "152623.470000",
    "152625.470000",
    "152627.470000",
    "152629.471000",
    "152631.469000",
    "152633.469000",
    "152635.469000",
    "152637.470000",
    "152639.471000",
    "152641.471000",
    "152643.471000",
    "152645.471000",
    "152647.471000",
    "152649.470000",
    "152651.470000",
    "152653.470000",
    "152655.478000",
    "152657.470000",
    "152659.471000",
    "152701.470000",
    "152703.470000",
    "152705.470000",
    "152707.469000",
    "152709.469000",
    "152711.471000",
    "152713.471000",
    "152715.471000",
    "152717.470000",
    "152719.471000",
    "152721.470000",
    "152723.471000",
    "152725.470000",
    "152727.469000",
    "152729.471000",
    "152731.470000",
    "152733.470000",
    "152735.470000",
    "152737.470000",
    "152739.471000",
    "152741.470000",
    "152743.469000",
    "152745.470000",
    "152747.471000",
    "152749.470000",
    "152751.470000",
    "152753.470000",
    "152755.471000",
    "152757.471000",
    "152759.469000",
    "152801.469000",
    "152803.471000",
    "152805.471000",
    "152807.471000",
    "152809.471000",
    "152811.471000",
    "152813.471000",
    "152815.471000",
    "152817.469000",
    "152819.470000",
    "152821.471000",
    "152823.471000",
    "152825.470000",
    "152827.471000",
    "152829.471000",
    "152831.470000",
    "152833.471000",
    "152835.470000",
    "152837.469000",
    "152839.471000",
    "152841.470000",
    "152843.471000",
    "152845.470000",
    "152847.471000",
    "152849.470000",
    "152851.469000",
    "152853.469000",
    "152855.469000",
    "152857.471000",
    "152859.470000",
    "152901.471000",
    "152903.471000",
    "152905.470000",
    "152907.470000",
    "152909.469000",
    "152911.470000",
    "152913.471000",
    "152915.471000",
    "152917.470000",
    "152919.471000",
    "152921.470000",
    "152923.471000",
    "152925.470000",
    "152927.470000",
    "152929.469000",
    "152931.471000",
    "152933.471000",
    "152935.471000",
    "152937.470000",
    "152939.470000",
    "152941.471000",
    "152943.470000",
    "152945.470000",
    "152947.469000",
    "152949.471000",
    "152951.470000",
    "152953.471000",
    "152955.470000",
    "152957.471000",
    "152959.470000",
    "153001.469000",
    "153003.469000",
    "153005.470000",
    "153007.470000",
    "153009.471000",
    "153011.471000",
    "153013.470000",
    "153015.471000",
    "153017.470000",
    "153019.469000",
    "153021.469000",
    "153023.470000",
    "153025.471000",
    "153027.470000",
    "153029.471000",
    "153031.470000",
    "153033.471000",
    "153035.471000",
    "153037.470000",
    "153039.470000",
    "153041.471000",
    "153043.470000",
    "153045.471000",
    "153047.471000",
    "153049.470000",
    "153051.470000",
    "153053.470000",
    "153055.470000",
    "153057.470000",
    "153059.471000",
    "153101.331000"
   ],
   "InstanceCreationTime": [
    "152231.975000",
    "152233.470000",
    "152235.470000",
    "152237.470000",
    "152239.470000",
    "152241.470000",
    "152243.470000",
    "152245.469000",
    "152247.469000",
    "152249.470000",
    "152251.470000",
    "152253.470000",
    "152255.470000",
    "152257.471000",
    "152259.470000",
    "152301.469000",
    "152303.469000",
    "152305.470000",
    "152307.470000",
    "152309.470000",
    "152311.470000",
    "152313.471000",
    "152315.470000",
    "152317.470000",
    "152319.469000",
    "152321.470000",
    "152323.469000",
    "152325.471000",
    "152327.471000",
    "152329.471000",
    "152331.470000",
    "152333.470000",
    "152335.470000",
    "152337.470000",
    "152339.470000",
    "152341.470000",
    "152343.471000",
    "152345.471000",
    "152347.470000",
    "152349.471000",
    "152351.470000",
    "152353.471000",
    "152355.469000",
    "152357.469000",
    "152359.470000",
    "152401.471000",
    "152403.471000",
    "152405.471000",
    "152407.470000",
    "152409.470000",
    "152411.469000",
    "152413.470000",
    "152415.470000",
    "152417.470000",
    "152419.470000",
    "152421.471000",
    "152423.471000",
    "152425.470000",
    "152427.470000",
    "152429.469000",
    "152431.470000",
    "152433.469000",
    "152435.471000",
    "152437.470000",
    "152439.471000",
    "152441.470000",
    "152443.471000",
    "152445.470000",
    "152447.469000",
    "152449.469000",
    "152451.470000",
    "152453.470000",
    "152455.470000",
    "152457.471000",
    "152459.470000",
    "152501.471000",
    "152503.470000",
    "152505.470000",
    "152507.470000",
    "152509.471000",
    "152511.471000",
    "152513.470000",
    "152515.471000",
    "152517.471000",
    "152519.470000",
    "152521.469000",
    "152523.470000",
    "152525.469000",
    "152527.470000",
    "152529.470000",
    "152531.470000",
    "152533.471000",
    "152535.470000",
    "152537.470000",
    "152539.469000",
    "152541.470000",
    "152543.469000",
    "152545.470000",
    "152547.471000",
    "152549.470000",
    "152551.470000",
    "152553.470000",
    "152555.470000",
    "152557.469000",
    "152559.470000",
    "152601.471000",
    "152603.471000",
    "152605.471000",
    "152607.470000",
    "152609.470000",
    "152611.471000",
    "152613.471000",
    "152615.469000",
    "152617.469000",
    "152619.470000",
    "152621.471000",
    "152623.470000",
    "152625.470000",
    "152627.470000",
    "152629.471000",
    "152631.469000",
    "152633.469000",
    "152635.469000",
    "152637.470000",
    "152639.471000",
    "152641.471000",
    "152643.471000",
    "152645.471000",
    "152647.471000",
    "152649.470000",
    "152651.470000",
    "152653.470000",
    "152655.478000",
    "152657.470000",
    "152659.471000",
    "152701.470000",
    "152703.470000",
    "152705.470000",
    "152707.469000",
    "152709.469000",
    "152711.471000",
    "152713.471000",
    "152715.471000",
    "152717.470000",
    "152719.471000",
    "152721.470000",
    "152723.471000",
    "152725.470000",
    "152727.469000",
    "152729.471000",
    "152731.470000",
    "152733.470000",
    "152735.470000",
    "152737.470000",
    "152739.471000",
    "152741.470000",
    "152743.469000",
    "152745.470000",
    "152747.471000",
    "152749.470000",
    "152751.470000",
    "152753.470000",
    "152755.471000",
    "152757.471000",
    "152759.469000",
    "152801.469000",
    "152803.471000",
    "152805.471000",
    "152807.471000",
    "152809.471000",
    "152811.471000",
    "152813.471000",
    "152815.471000",
    "152817.469000",
    "152819.470000",
    "152821.471000",
    "152823.471000",
    "152825.470000",
    "152827.471000",
    "152829.471000",
    "152831.470000",
    "152833.471000",
    "152835.470000",
    "152837.469000",
    "152839.471000",
    "152841.470000",
    "152843.471000",
    "152845.470000",
    "152847.471000",
    "152849.470000",
    "152851.469000",
    "152853.469000",
    "152855.469000",
    "152857.471000",
    "152859.470000",
    "152901.471000",
    "152903.471000",
    "152905.470000",
    "152907.470000",
    "152909.469000",
    "152911.470000",
    "152913.471000",
    "152915.471000",
    "152917.470000",
    "152919.471000",
    "152921.470000",
    "152923.471000",
    "152925.470000",
    "152927.470000",
    "152929.469000",
    "152931.471000",
    "152933.471000",
    "152935.471000",
    "152937.470000",
    "152939.470000",
    "152941.471000",
    "152943.470000",
    "152945.470000",
    "152947.469000",
    "152949.471000",
    "152951.470000",
    "152953.471000",
    "152955.470000",
    "152957.471000",
    "152959.470000",
    "153001.469000",
    "153003.469000",
    "153005.470000",
    "153007.470000",
    "153009.471000",
    "153011.471000",
    "153013.470000",
    "153015.471000",
    "153017.470000",
    "153019.469000",
    "153021.469000",
    "153023.470000",
    "153025.471000",
    "153027.470000",
    "153029.471000",
    "153031.470000",
    "153033.471000",
    "153035.471000",
    "153037.470000",
    "153039.470000",
    "153041.471000",
    "153043.470000",
    "153045.471000",
    "153047.471000",
    "153049.470000",
    "153051.470000",
    "153053.470000",
    "153055.470000",
    "153057.470000",
    "153059.471000",
    "153101.331000"
   ],
   "InstanceNumber": [
    1,
    2,
    3,
    4,
    5,
    6,
    7,
    8,
    9,
    10,
    11,
    12,
    13,
    14,
    15,
    16,
    17,
    18,
    19,
    20,
    21,
    22,
    23,
    24,
    25,
    26,
    27,
    28,
    29,
    30,
    31,
    32,
    33,
    34,
    35,
    36,
    37,
    38,
    39,
    40,
    41,
    42,
    43,
    44,
    45,
    46,
    47,
    48,
    49,
    50,
    51,
    52,
    53,
    54,
    55,
    56,
    57,
    58,
    59,
    60,
    61,
    62,
    63,
    64,
    65,
    66,
    67,
    68,
    69,
    70,
    71,
    72,
    73,
    74,
    75,
    76,
    77,
    78,
    79,
    80,
    81,
    82,
    83,
    84,
    85,
    86,
    87,
    88,
    89,
    90,
    91,
    92,
    93,
    94,
    95,
    96,
    97,
    98,
    99,
    100,
    101,
    102,
    103,
    104,
    105,
    106,
    107,
    108,
    109,
    110,
    111,
    112,
    113,
    114,
    115,
    116,
    117,
    118,
    119,
    120,
    121,
    122,
    123,
    124,
    125,
    126,
    127,
    128,
    129,
    130,
    131,
    132,
    133,
    134,
    135,
    136,
    137,
    138,
    139,
    140,
    141,
    142,
    143,
    144,
    145,
    146,
    147,
    148,
    149,
    150,
    151,
    152,
    153,
    154,
    155,
    156,
    157,
    158,
    159,
    160,
    161,
    162,
    163,
    164,
    165,
    166,
    167,
    168,
    169,
    170,
    171,
    172,
    173,
    174,
    175,
    176,
    177,
    178,
    179,
    180,
    181,
    182,
    183,
    184,
    185,
    186,
    187,
    188,
    189,
    190,
    191,
    192,
    193,
    194,
    195,
    196,
    197,
    198,
    199,
    200,
    201,
    202,
    203,
    204,
    205,
    206,
    207,
    208,
    209,
    210,
    211,
    212,
    213,
    214,
    215,
    216,
    217,
    218,
    219,
    220,
    221,
    222,
    223,
    224,
    225,
    226,
    227,
    228,
    229,
    230,
    231,
    232,
    233,
    234,
    235,
    236,
    237,
    238,
    239,
    240,
    241,
    242,
    243,
    244,
    245,
    246,
    247,
    248,
    249,
    250,
    251,
    252,
    253,
    254,
    255,
    256
   ],
   "LargestImagePixelValue": [
    2652,
    2624,
    2727,
    2595,
    2593,
    2591,
    2640,
    2626,
    2618,
    2622,
    2618,
    2632,
    2692,
    2594,
    2783,
    2834,
    2598,
    2607,
    2773,
    2619,
    2613,
    2592,
    2606,
    2615,
    2608,
    2637,
    2610,
    2593,
    2592,
    2588,
    2612,
    2598,
    2658,
    2598,
    2661,
    2739,
    2569,
    2559,
    2783,
    2587,
    2731,
    2570,
    2633,
    2608,
    2609,
    2599,
    2563,
    2597,
    2593,
    2610,
    2608,
    2577,
    2673,
    2624,
    2778,
    2593,
    2609,
    2596,
    2584,
    2630,
    2586,
    2707,
    2563,
    2572,
    2652,
    2583,
    2709,
    2605,
    2720,
    2599,
    2728,
    2619,
    2587,
    2587,
    2562,
    2762,
    2705,
    2605,
    2590,
    2564,
    2612,
    2588,
    2576,
    2573,
    2593,
    2597,
    2605,
    2541,
    2541,
    2578,
    2566,
    2574,
    2605,
    2588,
    2601,
    2590,
    2563,
    2557,
    2599,
    2552,
    2542,
    2579,
    2582,
    2580,
    2596,
    2603,
    2570,
    2678,
    2603,
    2608,
    2582,
    2584,
    2637,
    2693,
    2647,
    2637,
    2588,
    2603,
    2580,
    2588,
    2576,
    2577,
    2683,
    2585,
    2592,
    2554,
    2573,
    2639,
    2603,
    2598,
    2580,
    2607,
    2602,
    2747,
    2563,
    2578,
    2660,
    2587,
    2714,
    2698,
    2582,
    2885,
    2591,
    2699,
    2614,
    2568,
    2585,
    2606,
    2644,
    2601,
    2655,
    2732,
    2560,
    2629,
    2628,
    2579,
    2578,
    2582,
    2611,
    2593,
    2581,
    2633,
    2587,
    2597,
    2583,
    2877,
    2585,
    2589,
    2598,
    2586,
    2587,
    2602,
    2617,
    2603,
    2624,
    2585,
    2614,
    2602,
    2596,
    2575,
    2573,
    2866,
    2613,
    2605,
    2621,
    2579,
    2582,
    2603,
    2593,
    2583,
    2589,
    2640,
    2725,
    2617,
    2553,
    2597,
    2562,
    2577,
    2580,
    2621,
    2588,
    2571,
    2602,
    2600,
    2693,
    2718,
    2693,
    2611,
    2610,
    2601,
    2595,
    2606,
    2611,
    2754,
    2569,
    2606,
    2721,
    2595,
    2612,
    2635,
    2583,
    2638,
    2621,
    2721,
    2658,
    2616,
    2625,
    2617,
    2601,
    2606,
    2704,
    2618,
    2634,
    2607,
    2611,
    2599,
    2611,
    2619,
    2859,
    2809,
    2600,
    2614,
    2625,
    2599,
    2580,
    2635,
    2619,
    2589,
    2592,
    2609,
    2757,
    2591,
    2624,
    2587,
    2616,
    2631
   ],
   "WindowCenter": [
    745.0,
    744.0,
    743.0,
    743.0,
    746.0,
    745.0,
    743.0,
    742.0,
    742.0,
    742.0,
    742.0,
    746.0,
    745.0,
    746.0,
    745.0,
    745.0,
    743.0,
    743.0,
    744.0,
    744.0,
    745.0,
    743.0,
    743.0,
    744.0,
    744.0,
    745.0,
    741.0,
    745.0,
    743.0,
    745.0,
    744.0,
    742.0,
    742.0,
    742.0,
    744.0,
    744.0,
    744.0,
    744.0,
    745.0,
    744.0,
    745.0,
    746.0,
    747.0,
    742.0,
    743.0,
    743.0,
    743.0,
    744.0,
    744.0,
    742.0,
    744.0,
    745.0,
    745.0,
    745.0,
    747.0,
    745.0,
    744.0,
    744.0,
    744.0,
    744.0,
    742.0,
    745.0,
    745.0,
    745.0,
    745.0,
    744.0,
    745.0,
    743.0,
    745.0,
    743.0,
    743.0,
    743.0,
    742.0,
    746.0,
    745.0,
    746.0,
    745.0,
    744.0,
    744.0,
    743.0,
    743.0,
    742.0,
    744.0,
    745.0,
    743.0,
    744.0,
    743.0,
    746.0,
    743.0,
    744.0,
    744.0,
    743.0,
    742.0,
    743.0,
    741.0,
    744.0,
    745.0,
    746.0,
    745.0,
    745.0,
    744.0,
    744.0,
    744.0,
    744.0,
    743.0,
    743.0,
    743.0,
    741.0,
    742.0,
    743.0,
