{
  "AcquisitionMatrixPE": 100,
  "AcquisitionNumber": 1,
  "AcquisitionTime": "13:21:11.465000",
  "BandwidthPerPixelPhaseEncode": 18.519,
  "BaseResolution": 100,
  "BodyPartExamined": "BRAIN",
  "ConsistencyInfo": "N4_VE11C_LATEST_20160120",
  "ConversionSoftware": "dcm2niix",
  "ConversionSoftwareVersion": "v1.0.20180622 GCC4.9.2",
  "DerivedVendorReportedEchoSpacing": 0.000539986,
  "DeviceSerialNumber": "166078",
  "DwellTime": 2.1e-06,
  "EchoTime": 0.034,
  "EchoTrainLength": 100,
  "EffectiveEchoSpacing": 0.000539986,
  "FlipAngle": 90,
  "ImageOrientationPatientDICOM": [1, 0, 0, 0, 0.965926, -0.258819],
  "ImageType": [
    "ORIGINAL",
    "PRIMARY",
    "M",
    "ND",
    "MOSAIC"
],
  "InPlanePhaseEncodingDirectionDICOM": "COL",
  "InstitutionAddress": "Street_StreetNo_Bei_Jing_District_CN_ZIP",
  "InstitutionName": "BeiJing_Normal_University",
  "InstitutionalDepartmentName": "Department",
  "MRAcquisitionType": "2D",
  "MagneticFieldStrength": 3,
  "Manufacturer": "Siemens",
  "ManufacturersModelName": "Prisma",
  "Modality": "MR",
  "MultibandAccelerationFactor": 3,
  "PartialFourier": 1,
  "PatientPosition": "HFS",
  "PercentPhaseFOV": 100,
  "PhaseEncodingDirection": "j-",
  "PhaseEncodingSteps": 100,
  "PhaseResolution": 1,
  "PixelBandwidth": 2380,
  "ProcedureStepDescription": "BNU_P2018_64CH_Zhen.ZongLei",
  "ProtocolName": "bold_100x100_s3_2x2x2_cat_150",
  "PulseSequenceDetails": "%SiemensSeq%_ep2d_bold",
  "ReceiveCoilActiveElements": "HC1-7;NC1",
  "ReceiveCoilName": "HeadNeck_64",
  "ReconMatrixPE": 100,
  "RepetitionTime": 2,
  "SAR": 0.0731478,
  "ScanOptions": "FS",
  "ScanningSequence": "EP",
  "SequenceName": "_epfid2d1_100",
  "SequenceVariant": "SK",
  "SeriesDescription": "bold_100x100_s3_2x2x2_cat_150",
  "SeriesNumber": 5,
  "ShimSetting": [-5457, -11469, -1286, 302, -33, -169, -225, 82],
  "SliceThickness": 2,
  "SliceTiming": [1.485, 0, 0.99, 0.0825, 1.0725, 0.165, 1.155, 0.2475, 1.2375, 0.33, 1.32, 0.4125, 1.4025, 0.5775, 1.5675, 0.66, 1.65, 0.7425, 1.7325, 0.825, 1.815, 0.9075, 1.8975, 0.495, 1.485, 0, 0.99, 0.0825, 1.0725, 0.165, 1.155, 0.2475, 1.2375, 0.33, 1.32, 0.4125, 1.4025, 0.5775, 1.5675, 0.66, 1.65, 0.7425, 1.7325, 0.825, 1.815, 0.9075, 1.8975, 0.495, 1.485, 0, 0.99, 0.0825, 1.0725, 0.165, 1.155, 0.2475, 1.2375, 0.33, 1.32, 0.4125, 1.4025, 0.5775, 1.5675, 0.66, 1.65, 0.7425, 1.7325, 0.825, 1.815, 0.9075, 1.8975, 0.495],
  "SoftwareVersions": "syngo_MR_E11",
  "SpacingBetweenSlices": 2,
  "StationName": "AWP166078",
  "TaskName": "category",
  "TotalReadoutTime": 0.0534586,
  "TxRefAmp": 229.519,
  "dcmmeta_affine": [
    [-2.0, 0.0, 0.0, 100.0],
    [0.0, 1.9318516254425049, -0.5176380276679993, -73.80265045166016],
    [0.0, 0.517638087272644, 1.9318516254425049, -89.45343017578125],
    [0.0, 0.0, 0.0, 1.0]
],
  "dcmmeta_reorient_transform": [
    [0.0, -1.0, 0.0, 99.0],
    [1.0, 0.0, 0.0, 0.0],
    [0.0, 0.0, 1.0, 0.0],
    [0.0, 0.0, 0.0, 1.0]
],
  "dcmmeta_shape": [100, 100, 72, 150],
  "dcmmeta_slice_dim": 2,
  "dcmmeta_version": 0.6,
  "global": {
    "const": {
      "AcquisitionMatrix": [100, 0, 0, 100],
      "AngioFlag": "N",
      "BitsAllocated": 16,
      "BitsStored": 12,
      "BodyPartExamined": "BRAIN",
      "Columns": 900,
      "EchoNumbers": 1,
      "EchoTime": 34.0,
      "EchoTrainLength": 100,
      "FlipAngle": 90.0,
      "HighBit": 11,
      "ImageOrientationPatient": [1.0, 0.0, 0.0, 0.0, 0.9659258278573, -0.2588190392498],
      "ImagePositionPatient": [-900.0, -890.19132498185, 168.84797059094],
      "ImageType": [
        "ORIGINAL",
        "PRIMARY",
        "M",
        "ND",
        "MOSAIC"
],
      "ImagedNucleus": "1H",
      "ImagingFrequency": 123.257754,
      "InPlanePhaseEncodingDirection": "COL",
      "MRAcquisitionType": "2D",
      "MagneticFieldStrength": 3.0,
      "Manufacturer": "SIEMENS",
      "ManufacturerModelName": "Prisma",
      "Modality": "MR",
      "NumberOfAverages": 1.0,
      "NumberOfPhaseEncodingSteps": 100,
      "PercentPhaseFieldOfView": 100.0,
      "PercentSampling": 100.0,
      "PerformedProcedureStepStartTime": "130450.942000",
      "PhotometricInterpretation": "MONOCHROME2",
      "PixelBandwidth": 2380.0,
      "PixelRepresentation": 0,
      "PixelSpacing": [2.0, 2.0],
      "ProtocolName": "bold_100x100_s3_2x2x2_cat_150",
      "RepetitionTime": 2000.0,
      "Rows": 900,
      "SAR": 0.07314783889416,
      "SamplesPerPixel": 1,
      "ScanOptions": "FS",
      "ScanningSequence": "EP",
      "SequenceName": "*epfid2d1_100",
      "SequenceVariant": "SK",
      "SeriesDescription": "bold_100x100_s3_2x2x2_cat_150",
      "SeriesNumber": 5,
      "SeriesTime": "132113.803000",
      "SliceLocation": -67.303847705236,
      "SliceThickness": 2.0,
      "SmallestImagePixelValue": 0,
      "SoftwareVersions": "syngo MR E11",
      "SpacingBetweenSlices": 1.9999999109673,
      "SpecificCharacterSet": "ISO_IR 100",
      "StudyID": "1",
      "StudyTime": "130450.828000",
      "TransmitCoilName": "Body",
      "VariableFlipAngleFlag": "N",
      "WindowCenterWidthExplanation": "Algo1",
      "dBdt": 0.0},
    "slices": {}
  },
  "time": {
    "samples": {
      "AcquisitionNumber": [1, 2, 3, 4, 5, 6, 7, 8, 9, 10, 11, 12, 13, 14, 15, 16, 17, 18, 19, 20, 21, 22, 23, 24, 25, 26, 27, 28, 29, 30, 31, 32, 33, 34, 35, 36, 37, 38, 39, 40, 41, 42, 43, 44, 45, 46, 47, 48, 49, 50, 51, 52, 53, 54, 55, 56, 57, 58, 59, 60, 61, 62, 63, 64, 65, 66, 67, 68, 69, 70, 71, 72, 73, 74, 75, 76, 77, 78, 79, 80, 81, 82, 83, 84, 85, 86, 87, 88, 89, 90, 91, 92, 93, 94, 95, 96, 97, 98, 99, 100, 101, 102, 103, 104, 105, 106, 107, 108, 109, 110, 111, 112, 113, 114, 115, 116, 117, 118, 119, 120, 121, 122, 123, 124, 125, 126, 127, 128, 129, 130, 131, 132, 133, 134, 135, 136, 137, 138, 139, 140, 141, 142, 143, 144, 145, 146, 147, 148, 149, 150],
      "AcquisitionTime": ["132111.465000", "132113.465000", "132115.465000", "132117.465000", "132119.465000", "132121.465000", "132123.465000", "132125.465000", "132127.465000", "132129.465000", "132131.465000", "132133.465000", "132135.465000", "132137.465000", "132139.465000", "132141.465000", "132143.465000", "132145.465000", "132147.465000", "132149.465000", "132151.465000", "132153.465000", "132155.465000", "132157.465000", "132159.465000", "132201.465000", "132203.465000", "132205.465000", "132207.465000", "132209.465000", "132211.465000", "132213.465000", "132215.465000", "132217.465000", "132219.465000", "132221.465000", "132223.465000", "132225.465000", "132227.465000", "132229.465000", "132231.465000", "132233.465000", "132235.465000", "132237.465000", "132239.465000", "132241.465000", "132243.465000", "132245.465000", "132247.465000", "132249.465000", "132251.465000", "132253.465000", "132255.465000", "132257.465000", "132259.465000", "132301.465000", "132303.465000", "132305.465000", "132307.465000", "132309.465000", "132311.465000", "132313.465000", "132315.465000", "132317.465000", "132319.465000", "132321.465000", "132323.465000", "132325.465000", "132327.465000", "132329.465000", "132331.465000", "132333.465000", "132335.465000", "132337.465000", "132339.465000", "132341.465000", "132343.465000", "132345.465000", "132347.465000", "132349.465000", "132351.465000", "132353.465000", "132355.465000", "132357.465000", "132359.465000", "132401.465000", "132403.465000", "132405.465000", "132407.465000", "132409.465000", "132411.465000", "132413.465000", "132415.465000", "132417.465000", "132419.465000", "132421.465000", "132423.465000", "132425.465000", "132427.465000", "132429.465000", "132431.465000", "132433.465000", "132435.465000", "132437.465000", "132439.465000", "132441.465000", "132443.465000", "132445.465000", "132447.465000", "132449.465000", "132451.465000", "132453.465000", "132455.465000", "132457.465000", "132459.465000", "132501.465000", "132503.465000", "132505.465000", "132507.465000", "132509.465000", "132511.465000", "132513.465000", "132515.465000", "132517.465000", "132519.465000", "132521.465000", "132523.465000", "132525.465000", "132527.465000", "132529.465000", "132531.465000", "132533.465000", "132535.465000", "132537.465000", "132539.465000", "132541.465000", "132543.465000", "132545.465000", "132547.465000", "132549.465000", "132551.465000", "132553.465000", "132555.465000", "132557.465000", "132559.465000", "132601.465000", "132603.465000", "132605.465000", "132607.465000", "132609.465000"],
      "ContentTime": ["132113.807000", "132115.302000", "132117.302000", "132119.303000", "132121.302000", "132123.302000", "132125.302000", "132127.802000", "132129.302000", "132131.303000", "132133.302000", "132135.303000", "132137.303000", "132139.302000", "132141.301000", "132143.303000", "132145.803000", "132147.302000", "132149.302000", "132151.302000", "132153.302000", "132155.302000", "132157.801000", "132159.302000", "132201.302000", "132203.302000", "132205.302000", "132207.302000", "132209.302000", "132211.302000", "132213.801000", "132215.302000", "132217.301000", "132219.302000", "132221.802000", "132223.303000", "132225.302000", "132227.302000", "132229.303000", "132231.301000", "132233.301000", "132235.802000", "132237.302000", "132239.303000", "132241.302000", "132243.302000", "132245.302000", "132247.303000", "132249.802000", "132251.801000", "132253.803000", "132255.303000", "132257.302000", "132259.302000", "132301.302000", "132303.302000", "132305.302000", "132307.301000", "132309.301000", "132311.302000", "132313.303000", "132315.302000", "132317.302000", "132319.302000", "132321.302000", "132323.303000", "132325.301000", "132327.301000", "132329.302000", "132331.303000", "132333.303000", "132335.302000", "132337.302000", "132339.303000", "132341.301000", "132343.301000", "132345.303000", "132347.303000", "132349.302000", "132351.302000", "132353.302000", "132355.303000", "132357.302000", "132359.302000", "132401.302000", "132403.302000", "132405.302000", "132407.303000", "132409.302000", "132411.302000", "132413.303000", "132415.302000", "132417.301000", "132419.803000", "132421.303000", "132423.302000", "132425.303000", "132427.303000", "132429.303000", "132431.302000", "132433.302000", "132435.302000", "132437.303000", "132439.302000", "132441.302000", "132443.303000", "132445.302000", "132447.802000", "132449.302000", "132451.301000", "132453.301000", "132455.303000", "132457.302000", "132459.303000", "132501.302000", "132503.303000", "132505.303000", "132507.305000", "132509.302000", "132511.301000", "132513.302000", "132515.302000", "132517.302000", "132519.303000", "132521.302000", "132523.302000", "132525.303000", "132527.301000", "132529.803000", "132531.302000", "132533.303000", "132535.302000", "132537.303000", "132539.303000", "132541.303000", "132543.302000", "132545.302000", "132547.303000", "132549.302000", "132551.302000", "132553.302000", "132555.302000", "132557.803000", "132559.807000", "132601.801000", "132603.302000", "132605.303000", "132607.302000", "132609.802000", "132611.292000"],
      "InstanceCreationTime": ["132113.807000", "132115.302000", "132117.302000", "132119.303000", "132121.302000", "132123.302000", "132125.302000", "132127.802000", "132129.302000", "132131.303000", "132133.302000", "132135.303000", "132137.303000", "132139.302000", "132141.301000", "132143.303000", "132145.803000", "132147.302000", "132149.302000", "132151.302000", "132153.302000", "132155.302000", "132157.801000", "132159.302000", "132201.302000", "132203.302000", "132205.302000", "132207.302000", "132209.302000", "132211.302000", "132213.801000", "132215.302000", "132217.301000", "132219.302000", "132221.802000", "132223.303000", "132225.302000", "132227.302000", "132229.303000", "132231.301000", "132233.301000", "132235.802000", "132237.302000", "132239.303000", "132241.302000", "132243.302000", "132245.302000", "132247.303000", "132249.802000", "132251.801000", "132253.803000", "132255.303000", "132257.302000", "132259.302000", "132301.302000", "132303.302000", "132305.302000", "132307.301000", "132309.301000", "132311.302000", "132313.303000", "132315.302000", "132317.302000", "132319.302000", "132321.302000", "132323.303000", "132325.301000", "132327.301000", "132329.302000", "132331.303000", "132333.303000", "132335.302000", "132337.302000", "132339.303000", "132341.301000", "132343.301000", "132345.303000", "132347.303000", "132349.302000", "132351.302000", "132353.302000", "132355.303000", "132357.302000", "132359.302000", "132401.302000", "132403.302000", "132405.302000", "132407.303000", "132409.302000", "132411.302000", "132413.303000", "132415.302000", "132417.301000", "132419.803000", "132421.303000", "132423.302000", "132425.303000", "132427.303000", "132429.303000", "132431.302000", "132433.302000", "132435.302000", "132437.303000", "132439.302000", "132441.302000", "132443.303000", "132445.302000", "132447.802000", "132449.302000", "132451.301000", "132453.301000", "132455.303000", "132457.302000", "132459.303000", "132501.302000", "132503.303000", "132505.303000", "132507.305000", "132509.302000", "132511.301000", "132513.302000", "132515.302000", "132517.302000", "132519.303000", "132521.302000", "132523.302000", "132525.303000", "132527.301000", "132529.803000", "132531.302000", "132533.303000", "132535.302000", "132537.303000", "132539.303000", "132541.303000", "132543.302000", "132545.302000", "132547.303000", "132549.302000", "132551.302000", "132553.302000", "132555.302000", "132557.803000", "132559.807000", "132601.801000", "132603.302000", "132605.303000", "132607.302000", "132609.802000", "132611.292000"],
      "InstanceNumber": [1, 2, 3, 4, 5, 6, 7, 8, 9, 10, 11, 12, 13, 14, 15, 16, 17, 18, 19, 20, 21, 22, 23, 24, 25, 26, 27, 28, 29, 30, 31, 32, 33, 34, 35, 36, 37, 38, 39, 40, 41, 42, 43, 44, 45, 46, 47, 48, 49, 50, 51, 52, 53, 54, 55, 56, 57, 58, 59, 60, 61, 62, 63, 64, 65, 66, 67, 68, 69, 70, 71, 72, 73, 74, 75, 76, 77, 78, 79, 80, 81, 82, 83, 84, 85, 86, 87, 88, 89, 90, 91, 92, 93, 94, 95, 96, 97, 98, 99, 100, 101, 102, 103, 104, 105, 106, 107, 108, 109, 110, 111, 112, 113, 114, 115, 116, 117, 118, 119, 120, 121, 122, 123, 124, 125, 126, 127, 128, 129, 130, 131, 132, 133, 134, 135, 136, 137, 138, 139, 140, 141, 142, 143, 144, 145, 146, 147, 148, 149, 150],
      "LargestImagePixelValue": [3122, 3076, 3125, 3074, 3097, 3056, 3083, 3108, 3100, 3072, 3121, 3109, 3094, 3103, 3074, 3114, 3028, 3083, 3058, 3085, 3092, 3068, 3088, 3077, 3112, 3097, 3108, 3075, 3083, 3074, 3084, 3081, 3080, 3080, 3113, 3118, 3114, 3125, 3127, 3088, 3131, 3109, 3091, 3090, 3113, 3064, 3101, 3116, 3120, 3118, 3071, 3082, 3098, 3049, 3066, 3058, 3086, 3053, 3086, 3068, 3079, 3088, 3068, 3069, 3129, 3075, 3098, 3094, 3076, 3088, 3051, 3089, 3094, 3063, 3108, 3103, 3091, 3097, 3029, 3108, 3070, 3071, 3079, 3084, 3101, 3061, 3063, 3105, 3058, 3058, 3108, 3112, 3088, 3095, 3060, 3081, 3087, 3105, 3111, 3080, 3088, 3082, 3073, 3066, 3075, 3070, 3083, 3115, 3082, 3091, 3106, 3067, 3054, 3079, 3072, 3090, 3065, 3074, 3106, 3089, 3079, 3053, 3063, 3085, 3082, 3102, 3042, 3055, 3062, 3070, 3057, 3061, 3121, 3075, 3099, 3004, 3049, 3119, 3068, 3071, 3102, 3079, 3061, 3101, 3071, 3112, 3087, 3110, 3081, 3097],
      "WindowCenter": [803.0, 801.0, 801.0, 800.0, 801.0, 802.0, 802.0, 801.0, 802.0, 802.0, 802.0, 800.0, 799.0, 798.0, 799.0, 800.0, 799.0, 800.0, 800.0, 800.0, 801.0, 801.0, 801.0, 800.0, 801.0, 801.0, 800.0, 800.0, 799.0, 800.0, 801.0, 802.0, 801.0, 801.0, 801.0, 801.0, 801.0, 801.0, 800.0, 800.0, 801.0, 801.0, 801.0, 800.0, 799.0, 799.0, 800.0, 800.0, 799.0, 799.0, 800.0, 801.0, 801.0, 800.0, 800.0, 801.0, 802.0, 802.0, 802.0, 802.0, 804.0, 804.0, 803.0, 801.0, 801.0, 801.0, 801.0, 801.0, 800.0, 800.0, 801.0, 801.0, 800.0, 801.0, 801.0, 801.0, 801.0, 801.0, 802.0, 802.0, 801.0, 801.0, 801.0, 802.0, 802.0, 802.0, 804.0, 805.0, 804.0, 802.0, 801.0, 801.0, 801.0, 802.0, 801.0, 801.0, 801.0, 802.0, 801.0, 801.0, 802.0, 804.0, 805.0, 804.0, 804.0, 805.0, 804.0, 802.0, 801.0, 801.0, 800.0, 800.0, 801.0, 801.0, 801.0, 802.0, 802.0, 802.0, 802.0, 801.0, 801.0, 801.0, 802.0, 803.0, 803.0, 802.0, 802.0, 803.0, 805.0, 804.0, 802.0, 802.0, 802.0, 801.0, 802.0, 803.0, 804.0, 802.0, 800.0, 800.0, 800.0, 799.0, 799.0, 799.0, 799.0, 799.0, 799.0, 801.0, 801.0, 801.0],
      "WindowWidth": [1715.0, 1711.0, 1710.0, 1709.0, 1711.0, 1713.0, 1714.0, 1713.0, 1713.0, 1713.0, 1714.0, 1710.0, 1706.0, 1704.0, 1707.0, 1709.0, 1707.0, 1708.0, 1708.0, 1710.0, 1712.0, 1712.0, 1712.0, 1710.0, 1711.0, 1712.0, 1711.0, 1708.0, 1708.0, 1709.0, 1713.0, 1714.0, 1713.0, 1712.0, 1713.0, 1712.0, 1712.0, 1712.0, 1710.0, 1709.0, 1711.0, 1712.0, 1713.0, 1710.0, 1707.0, 1707.0, 1709.0, 1708.0, 1707.0, 1708.0, 1709.0, 1711.0, 1711.0, 1709.0, 1710.0, 1713.0, 1715.0, 1716.0, 1716.0, 1716.0, 1721.0, 1721.0, 1716.0, 1713.0, 1712.0, 1712.0, 1712.0, 1712.0, 1710.0, 1709.0, 1711.0, 1711.0, 1710.0, 1711.0, 1712.0, 1711.0, 1711.0, 1712.0, 1714.0, 1715.0, 1712.0, 1711.0, 1713.0, 1715.0, 1714.0, 1713.0, 1719.0, 1723.0, 1719.0, 1715.0, 1712.0, 1712.0, 1712.0, 1714.0, 1712.0, 1711.0, 1712.0, 1713.0, 1713.0, 1712.0, 1714.0, 1719.0, 1723.0, 1721.0, 1720.0, 1721.0, 1718.0, 1714.0, 1711.0, 1711.0, 1710.0, 1709.0, 1710.0, 1710.0, 1711.0, 1714.0, 1714.0, 1714.0, 1714.0, 1713.0, 1711.0, 1710.0, 1713.0, 1717.0, 1716.0, 1714.0, 1713.0, 1716.0, 1721.0, 1718.0, 1715.0, 1713.0, 1712.0, 1711.0, 1713.0, 1717.0, 1718.0, 1712.0, 1709.0, 1709.0, 1707.0, 1705.0, 1704.0, 1706.0, 1707.0, 1706.0, 1706.0, 1711.0, 1710.0, 1710.0]
    },
    "slices": {}
  }
}