{
  "AcquisitionMatrixPE": 100,
  "AcquisitionNumber": 1,
  "AcquisitionTime": "13:25:38.017500",
  "BandwidthPerPixelPhaseEncode": 18.519,
  "BaseResolution": 100,
  "BodyPartExamined": "BRAIN",
  "ConsistencyInfo": "N4_VE11C_LATEST_20160120",
  "ConversionSoftware": "dcm2niix",
  "ConversionSoftwareVersion": "v1.0.20180622 GCC4.9.2",
  "DerivedVendorReportedEchoSpacing": 0.000539986,
  "DeviceSerialNumber": "166078",
  "DwellTime": 2.1e-06,
  "EchoTime": 0.034,
  "EchoTrainLength": 100,
  "EffectiveEchoSpacing": 0.000539986,
  "FlipAngle": 90,
  "ImageOrientationPatientDICOM": [0.998376, -0.0339378, 0.0457578, 0.0383538, 0.994312, -0.0993649],
  "ImageType": [
    "ORIGINAL",
    "PRIMARY",
    "M",
    "ND",
    "MOSAIC"
],
  "InPlanePhaseEncodingDirectionDICOM": "COL",
  "InstitutionAddress": "Street_StreetNo_Bei_Jing_District_CN_ZIP",
  "InstitutionName": "BeiJing_Normal_University",
  "InstitutionalDepartmentName": "Department",
  "MRAcquisitionType": "2D",
  "MagneticFieldStrength": 3,
  "Manufacturer": "Siemens",
  "ManufacturersModelName": "Prisma",
  "Modality": "MR",
  "MultibandAccelerationFactor": 3,
  "PartialFourier": 1,
  "PatientPosition": "HFS",
  "PercentPhaseFOV": 100,
  "PhaseEncodingDirection": "j-",
  "PhaseEncodingSteps": 100,
  "PhaseResolution": 1,
  "PixelBandwidth": 2380,
  "ProcedureStepDescription": "BNU_P2018_64CH_Zhen.ZongLei",
  "ProtocolName": "bold_100x100_s3_2x2x2_static_256",
  "PulseSequenceDetails": "%SiemensSeq%_ep2d_bold",
  "ReceiveCoilActiveElements": "HC1-7;NC1",
  "ReceiveCoilName": "HeadNeck_64",
  "ReconMatrixPE": 100,
  "RepetitionTime": 2,
  "SAR": 0.0737135,
  "ScanOptions": "FS",
  "ScanningSequence": "EP",
  "SequenceName": "_epfid2d1_100",
  "SequenceVariant": "SK",
  "SeriesDescription": "bold_100x100_s3_2x2x2_static_256",
  "SeriesNumber": 5,
  "ShimSetting": [-5441, -11486, -1282, 282, 60, -141, -174, 68],
  "SliceThickness": 2,
  "SliceTiming": [1.485, 0, 0.99, 0.0825, 1.0725, 0.165, 1.155, 0.2475, 1.2375, 0.33, 1.32, 0.4125, 1.4025, 0.5775, 1.5675, 0.66, 1.65, 0.7425, 1.7325, 0.825, 1.815, 0.9075, 1.8975, 0.495, 1.485, 0, 0.99, 0.0825, 1.0725, 0.165, 1.155, 0.2475, 1.2375, 0.33, 1.32, 0.4125, 1.4025, 0.5775, 1.5675, 0.66, 1.65, 0.7425, 1.7325, 0.825, 1.815, 0.9075, 1.8975, 0.495, 1.485, 0, 0.99, 0.0825, 1.0725, 0.165, 1.155, 0.2475, 1.2375, 0.33, 1.32, 0.4125, 1.4025, 0.5775, 1.5675, 0.66, 1.65, 0.7425, 1.7325, 0.825, 1.815, 0.9075, 1.8975, 0.495],
  "SoftwareVersions": "syngo_MR_E11",
  "SpacingBetweenSlices": 2,
  "StationName": "AWP166078",
  "TaskName": "naturalvision",
  "TotalReadoutTime": 0.0534586,
  "TxRefAmp": 229.058,
  "dcmmeta_affine": [
    [-1.9967517852783203, 0.07670750468969345, 0.0842505618929863, 95.02921295166016],
    [0.06787559390068054, 1.9886232614517212, -0.20191700756549835, -90.43597412109375],
    [0.09151559323072433, 0.19872979819774628, 1.9879968166351318, -75.90318298339844],
    [0.0, 0.0, 0.0, 1.0]
],
  "dcmmeta_reorient_transform": [
    [0.0, -1.0, 0.0, 99.0],
    [1.0, 0.0, 0.0, 0.0],
    [0.0, 0.0, 1.0, 0.0],
    [0.0, 0.0, 0.0, 1.0]
],
  "dcmmeta_shape": [100, 100, 72, 256],
  "dcmmeta_slice_dim": 2,
  "dcmmeta_version": 0.6,
  "global": {
    "const": {
      "AcquisitionMatrix": [100, 0, 0, 100],
      "AngioFlag": "N",
      "BitsAllocated": 16,
      "BitsStored": 12,
      "BodyPartExamined": "BRAIN",
      "Columns": 900,
      "EchoNumbers": 1,
      "EchoTime": 34.0,
      "EchoTrainLength": 100,
      "FlipAngle": 90.0,
      "HighBit": 11,
      "ImageOrientationPatient": [0.99837590619063, -0.0339377951438, 0.04575779713695, 0.03835375329078, 0.99431162421185, -0.0993649010753],
      "ImagePositionPatient": [-932.00698051772, -874.73678719522, -13.343248026532],
      "ImageType": [
        "ORIGINAL",
        "PRIMARY",
        "M",
        "ND",
        "MOSAIC"
],
      "ImagedNucleus": "1H",
      "ImagingFrequency": 123.257756,
      "InPlanePhaseEncodingDirection": "COL",
      "MRAcquisitionType": "2D",
      "MagneticFieldStrength": 3.0,
      "Manufacturer": "SIEMENS",
      "ManufacturerModelName": "Prisma",
      "Modality": "MR",
      "NumberOfAverages": 1.0,
      "NumberOfPhaseEncodingSteps": 100,
      "PercentPhaseFieldOfView": 100.0,
      "PercentSampling": 100.0,
      "PerformedProcedureStepStartTime": "130256.437000",
      "PhotometricInterpretation": "MONOCHROME2",
      "PixelBandwidth": 2380.0,
      "PixelRepresentation": 0,
      "PixelSpacing": [2.0, 2.0],
      "ProtocolName": "bold_100x100_s3_2x2x2_static_256",
      "RepetitionTime": 2000.0,
      "Rows": 900,
      "SAR": 0.07371350160457,
      "SamplesPerPixel": 1,
      "ScanOptions": "FS",
      "ScanningSequence": "EP",
      "SequenceName": "*epfid2d1_100",
      "SequenceVariant": "SK",
      "SeriesDescription": "bold_100x100_s3_2x2x2_static_256",
      "SeriesNumber": 5,
      "SeriesTime": "132540.708000",
      "SliceLocation": -62.314228191848,
      "SliceThickness": 2.0,
      "SmallestImagePixelValue": 0,
      "SoftwareVersions": "syngo MR E11",
      "SpacingBetweenSlices": 1.9999999390425,
      "SpecificCharacterSet": "ISO_IR 100",
      "StudyID": "1",
      "StudyTime": "130256.355000",
      "TransmitCoilName": "Body",
      "VariableFlipAngleFlag": "N",
      "WindowCenterWidthExplanation": "Algo1",
      "dBdt": 0.0},
    "slices": {}
  },
  "time": {
    "samples": {
      "AcquisitionNumber": [1, 2, 3, 4, 5, 6, 7, 8, 9, 10, 11, 12, 13, 14, 15, 16, 17, 18, 19, 20, 21, 22, 23, 24, 25, 26, 27, 28, 29, 30, 31, 32, 33, 34, 35, 36, 37, 38, 39, 40, 41, 42, 43, 44, 45, 46, 47, 48, 49, 50, 51, 52, 53, 54, 55, 56, 57, 58, 59, 60, 61, 62, 63, 64, 65, 66, 67, 68, 69, 70, 71, 72, 73, 74, 75, 76, 77, 78, 79, 80, 81, 82, 83, 84, 85, 86, 87, 88, 89, 90, 91, 92, 93, 94, 95, 96, 97, 98, 99, 100, 101, 102, 103, 104, 105, 106, 107, 108, 109, 110, 111, 112, 113, 114, 115, 116, 117, 118, 119, 120, 121, 122, 123, 124, 125, 126, 127, 128, 129, 130, 131, 132, 133, 134, 135, 136, 137, 138, 139, 140, 141, 142, 143, 144, 145, 146, 147, 148, 149, 150, 151, 152, 153, 154, 155, 156, 157, 158, 159, 160, 161, 162, 163, 164, 165, 166, 167, 168, 169, 170, 171, 172, 173, 174, 175, 176, 177, 178, 179, 180, 181, 182, 183, 184, 185, 186, 187, 188, 189, 190, 191, 192, 193, 194, 195, 196, 197, 198, 199, 200, 201, 202, 203, 204, 205, 206, 207, 208, 209, 210, 211, 212, 213, 214, 215, 216, 217, 218, 219, 220, 221, 222, 223, 224, 225, 226, 227, 228, 229, 230, 231, 232, 233, 234, 235, 236, 237, 238, 239, 240, 241, 242, 243, 244, 245, 246, 247, 248, 249, 250, 251, 252, 253, 254, 255, 256],
      "AcquisitionTime": ["132538.017500", "132540.017500", "132542.017500", "132544.017500", "132546.017500", "132548.017500", "132550.017500", "132552.017500", "132554.017500", "132556.017500", "132558.017500", "132600.017500", "132602.017500", "132604.017500", "132606.017500", "132608.017500", "132610.017500", "132612.017500", "132614.017500", "132616.017500", "132618.017500", "132620.017500", "132622.017500", "132624.017500", "132626.017500", "132628.017500", "132630.017500", "132632.017500", "132634.017500", "132636.017500", "132638.017500", "132640.017500", "132642.017500", "132644.017500", "132646.017500", "132648.017500", "132650.017500", "132652.017500", "132654.017500", "132656.017500", "132658.017500", "132700.017500", "132702.017500", "132704.017500", "132706.017500", "132708.017500", "132710.017500", "132712.017500", "132714.017500", "132716.017500", "132718.017500", "132720.017500", "132722.017500", "132724.017500", "132726.017500", "132728.017500", "132730.017500", "132732.017500", "132734.017500", "132736.017500", "132738.017500", "132740.017500", "132742.017500", "132744.017500", "132746.017500", "132748.017500", "132750.017500", "132752.017500", "132754.017500", "132756.017500", "132758.017500", "132800.017500", "132802.017500", "132804.017500", "132806.017500", "132808.017500", "132810.017500", "132812.017500", "132814.017500", "132816.017500", "132818.017500", "132820.017500", "132822.017500", "132824.017500", "132826.017500", "132828.017500", "132830.017500", "132832.017500", "132834.017500", "132836.017500", "132838.017500", "132840.017500", "132842.017500", "132844.017500", "132846.017500", "132848.017500", "132850.017500", "132852.017500", "132854.017500", "132856.017500", "132858.017500", "132900.017500", "132902.017500", "132904.017500", "132906.017500", "132908.017500", "132910.017500", "132912.017500", "132914.017500", "132916.017500", "132918.017500", "132920.017500", "132922.017500", "132924.017500", "132926.017500", "132928.017500", "132930.017500", "132932.017500", "132934.017500", "132936.017500", "132938.017500", "132940.017500", "132942.017500", "132944.017500", "132946.017500", "132948.017500", "132950.017500", "132952.017500", "132954.017500", "132956.017500", "132958.017500", "133000.017500", "133002.017500", "133004.017500", "133006.017500", "133008.017500", "133010.017500", "133012.017500", "133014.017500", "133016.017500", "133018.017500", "133020.017500", "133022.017500", "133024.017500", "133026.017500", "133028.017500", "133030.017500", "133032.017500", "133034.017500", "133036.017500", "133038.017500", "133040.017500", "133042.017500", "133044.017500", "133046.017500", "133048.017500", "133050.017500", "133052.017500", "133054.017500", "133056.017500", "133058.017500", "133100.017500", "133102.017500", "133104.017500", "133106.017500", "133108.017500", "133110.017500", "133112.017500", "133114.017500", "133116.017500", "133118.017500", "133120.017500", "133122.017500", "133124.017500", "133126.017500", "133128.017500", "133130.017500", "133132.017500", "133134.017500", "133136.017500", "133138.017500", "133140.017500", "133142.017500", "133144.017500", "133146.017500", "133148.017500", "133150.017500", "133152.017500", "133154.017500", "133156.017500", "133158.017500", "133200.017500", "133202.017500", "133204.017500", "133206.017500", "133208.017500", "133210.017500", "133212.017500", "133214.017500", "133216.017500", "133218.017500", "133220.017500", "133222.017500", "133224.017500", "133226.017500", "133228.017500", "133230.017500", "133232.017500", "133234.017500", "133236.017500", "133238.017500", "133240.017500", "133242.017500", "133244.017500", "133246.017500", "133248.017500", "133250.017500", "133252.017500", "133254.017500", "133256.017500", "133258.017500", "133300.017500", "133302.017500", "133304.017500", "133306.017500", "133308.017500", "133310.017500", "133312.017500", "133314.017500", "133316.017500", "133318.017500", "133320.017500", "133322.017500", "133324.017500", "133326.017500", "133328.017500", "133330.017500", "133332.017500", "133334.017500", "133336.017500", "133338.017500", "133340.017500", "133342.017500", "133344.017500", "133346.017500", "133348.017500", "133350.017500", "133352.017500", "133354.017500", "133356.017500", "133358.017500", "133400.017500", "133402.017500", "133404.017500", "133406.017500", "133408.017500"],
      "ContentTime": ["132540.711000", "132541.706000", "132544.206000", "132546.206000", "132548.208000", "132549.707000", "132552.206000", "132554.206000", "132556.207000", "132557.707000", "132559.706000", "132601.707000", "132604.206000", "132605.707000", "132608.207000", "132610.206000", "132612.206000", "132613.706000", "132616.206000", "132618.207000", "132620.207000", "132622.208000", "132624.208000", "132626.207000", "132628.206000", "132629.706000", "132632.207000", "132633.706000", "132636.206000", "132637.706000", "132640.207000", "132642.207000", "132644.206000", "132645.706000", "132648.206000", "132649.706000", "132652.206000", "132654.207000", "132656.207000", "132658.207000", "132659.707000", "132702.206000", "132704.206000", "132705.706000", "132708.206000", "132709.707000", "132712.206000", "132713.707000", "132716.207000", "132717.707000", "132719.706000", "132721.706000", "132723.706000", "132726.207000", "132728.206000", "132729.707000", "132731.706000", "132734.208000", "132735.708000", "132738.206000", "132740.206000", "132742.206000", "132744.207000", "132746.206000", "132748.207000", "132749.707000", "132752.207000", "132754.207000", "132756.206000", "132758.207000", "132800.207000", "132801.707000", "132804.206000", "132806.206000", "132807.707000", "132810.207000", "132811.707000", "132814.207000", "132816.206000", "132818.206000", "132820.206000", "132821.706000", "132824.207000", "132825.707000", "132828.207000", "132830.206000", "132831.706000", "132834.206000", "132835.707000", "132837.706000", "132840.206000", "132842.208000", "132844.208000", "132845.707000", "132848.206000", "132850.206000", "132851.706000", "132854.207000", "132856.206000", "132858.207000", "132900.207000", "132902.208000", "132904.207000", "132906.206000", "132908.206000", "132909.706000", "132912.206000", "132914.206000", "132916.206000", "132918.207000", "132919.708000", "132922.206000", "132924.206000", "132926.207000", "132928.206000", "132930.206000", "132932.207000", "132934.206000", "132936.207000", "132937.708000", "132940.207000", "132942.207000", "132944.207000", "132946.206000", "132948.206000", "132949.706000", "132952.207000", "132953.707000", "132955.707000", "132958.206000", "133000.206000", "133002.207000", "133004.207000", "133006.206000", "133008.206000", "133009.707000", "133012.208000", "133014.207000", "133016.206000", "133017.706000", "133020.207000", "133021.707000", "133023.706000", "133026.206000", "133028.207000", "133030.207000", "133032.206000", "133033.706000", "133036.206000", "133038.206000", "133040.206000", "133042.206000", "133044.208000", "133045.707000", "133048.208000", "133050.206000", "133052.207000", "133054.207000", "133056.207000", "133058.207000", "133100.206000", "133102.208000", "133104.207000", "133106.206000", "133108.207000", "133110.207000", "133112.206000", "133113.706000", "133116.206000", "133118.206000", "133119.708000", "133122.208000", "133124.207000", "133125.706000", "133128.206000", "133129.707000", "133132.207000", "133134.206000", "133136.207000", "133138.208000", "133140.207000", "133141.707000", "133143.706000", "133146.206000", "133147.706000", "133150.207000", "133152.206000", "133153.706000", "133156.207000", "133158.207000", "133159.707000", "133202.207000", "133204.206000", "133206.207000", "133208.207000", "133210.206000", "133212.208000", "133214.207000", "133215.722000", "133218.206000", "133219.707000", "133222.206000", "133224.206000", "133225.707000", "133227.706000", "133230.207000", "133231.707000", "133234.207000", "133236.207000", "133238.207000", "133240.207000", "133242.206000", "133244.207000", "133246.207000", "133248.207000", "133249.707000", "133252.206000", "133254.206000", "133256.207000", "133258.207000", "133300.206000", "133302.206000", "133304.207000", "133306.207000", "133308.207000", "133309.707000", "133312.206000", "133314.207000", "133316.206000", "133318.207000", "133319.706000", "133322.208000", "133323.708000", "133325.706000", "133328.207000", "133330.207000", "133332.207000", "133333.707000", "133335.706000", "133338.207000", "133340.207000", "133342.208000", "133344.206000", "133345.706000", "133348.207000", "133350.207000", "133352.207000", "133354.206000", "133355.706000", "133357.708000", "133400.208000", "133402.206000", "133404.206000", "133405.707000", "133408.207000", "133409.764000"],
      "InstanceCreationTime": ["132540.711000", "132541.706000", "132544.206000", "132546.206000", "132548.208000", "132549.707000", "132552.206000", "132554.206000", "132556.207000", "132557.707000", "132559.706000", "132601.707000", "132604.206000", "132605.707000", "132608.207000", "132610.206000", "132612.206000", "132613.706000", "132616.206000", "132618.207000", "132620.207000", "132622.208000", "132624.208000", "132626.207000", "132628.206000", "132629.706000", "132632.207000", "132633.706000", "132636.206000", "132637.706000", "132640.207000", "132642.207000", "132644.206000", "132645.706000", "132648.206000", "132649.706000", "132652.206000", "132654.207000", "132656.207000", "132658.207000", "132659.707000", "132702.206000", "132704.206000", "132705.706000", "132708.206000", "132709.707000", "132712.206000", "132713.707000", "132716.207000", "132717.707000", "132719.706000", "132721.706000", "132723.706000", "132726.207000", "132728.206000", "132729.707000", "132731.706000", "132734.208000", "132735.708000", "132738.206000", "132740.206000", "132742.206000", "132744.207000", "132746.206000", "132748.207000", "132749.707000", "132752.207000", "132754.207000", "132756.206000", "132758.207000", "132800.207000", "132801.707000", "132804.206000", "132806.206000", "132807.707000", "132810.207000", "132811.707000", "132814.207000", "132816.206000", "132818.206000", "132820.206000", "132821.706000", "132824.207000", "132825.707000", "132828.207000", "132830.206000", "132831.706000", "132834.206000", "132835.707000", "132837.706000", "132840.206000", "132842.208000", "132844.208000", "132845.707000", "132848.206000", "132850.206000", "132851.706000", "132854.207000", "132856.206000", "132858.207000", "132900.207000", "132902.208000", "132904.207000", "132906.206000", "132908.206000", "132909.706000", "132912.206000", "132914.206000", "132916.206000", "132918.207000", "132919.708000", "132922.206000", "132924.206000", "132926.207000", "132928.206000", "132930.206000", "132932.207000", "132934.206000", "132936.207000", "132937.708000", "132940.207000", "132942.207000", "132944.207000", "132946.206000", "132948.206000", "132949.706000", "132952.207000", "132953.707000", "132955.707000", "132958.206000", "133000.206000", "133002.207000", "133004.207000", "133006.206000", "133008.206000", "133009.707000", "133012.208000", "133014.207000", "133016.206000", "133017.706000", "133020.207000", "133021.707000", "133023.706000", "133026.206000", "133028.207000", "133030.207000", "133032.206000", "133033.706000", "133036.206000", "133038.206000", "133040.206000", "133042.206000", "133044.208000", "133045.707000", "133048.208000", "133050.206000", "133052.207000", "133054.207000", "133056.207000", "133058.207000", "133100.206000", "133102.208000", "133104.207000", "133106.206000", "133108.207000", "133110.207000", "133112.206000", "133113.706000", "133116.206000", "133118.206000", "133119.708000", "133122.208000", "133124.207000", "133125.706000", "133128.206000", "133129.707000", "133132.207000", "133134.206000", "133136.207000", "133138.208000", "133140.207000", "133141.707000", "133143.706000", "133146.206000", "133147.706000", "133150.207000", "133152.206000", "133153.706000", "133156.207000", "133158.207000", "133159.707000", "133202.207000", "133204.206000", "133206.207000", "133208.207000", "133210.206000", "133212.208000", "133214.207000", "133215.722000", "133218.206000", "133219.707000", "133222.206000", "133224.206000", "133225.707000", "133227.706000", "133230.207000", "133231.707000", "133234.207000", "133236.207000", "133238.207000", "133240.207000", "133242.206000", "133244.207000", "133246.207000", "133248.207000", "133249.707000", "133252.206000", "133254.206000", "133256.207000", "133258.207000", "133300.206000", "133302.206000", "133304.207000", "133306.207000", "133308.207000", "133309.707000", "133312.206000", "133314.207000", "133316.206000", "133318.207000", "133319.706000", "133322.208000", "133323.708000", "133325.706000", "133328.207000", "133330.207000", "133332.207000", "133333.707000", "133335.706000", "133338.207000", "133340.207000", "133342.208000", "133344.206000", "133345.706000", "133348.207000", "133350.207000", "133352.207000", "133354.206000", "133355.706000", "133357.708000", "133400.208000", "133402.206000", "133404.206000", "133405.707000", "133408.207000", "133409.764000"],
      "InstanceNumber": [1, 2, 3, 4, 5, 6, 7, 8, 9, 10, 11, 12, 13, 14, 15, 16, 17, 18, 19, 20, 21, 22, 23, 24, 25, 26, 27, 28, 29, 30, 31, 32, 33, 34, 35, 36, 37, 38, 39, 40, 41, 42, 43, 44, 45, 46, 47, 48, 49, 50, 51, 52, 53, 54, 55, 56, 57, 58, 59, 60, 61, 62, 63, 64, 65, 66, 67, 68, 69, 70, 71, 72, 73, 74, 75, 76, 77, 78, 79, 80, 81, 82, 83, 84, 85, 86, 87, 88, 89, 90, 91, 92, 93, 94, 95, 96, 97, 98, 99, 100, 101, 102, 103, 104, 105, 106, 107, 108, 109, 110, 111, 112, 113, 114, 115, 116, 117, 118, 119, 120, 121, 122, 123, 124, 125, 126, 127, 128, 129, 130, 131, 132, 133, 134, 135, 136, 137, 138, 139, 140, 141, 142, 143, 144, 145, 146, 147, 148, 149, 150, 151, 152, 153, 154, 155, 156, 157, 158, 159, 160, 161, 162, 163, 164, 165, 166, 167, 168, 169, 170, 171, 172, 173, 174, 175, 176, 177, 178, 179, 180, 181, 182, 183, 184, 185, 186, 187, 188, 189, 190, 191, 192, 193, 194, 195, 196, 197, 198, 199, 200, 201, 202, 203, 204, 205, 206, 207, 208, 209, 210, 211, 212, 213, 214, 215, 216, 217, 218, 219, 220, 221, 222, 223, 224, 225, 226, 227, 228, 229, 230, 231, 232, 233, 234, 235, 236, 237, 238, 239, 240, 241, 242, 243, 244, 245, 246, 247, 248, 249, 250, 251, 252, 253, 254, 255, 256],
      "LargestImagePixelValue": [3711, 3622, 3566, 3571, 3556, 3555, 3557, 3585, 3557, 3547, 3565, 3531, 3513, 3540, 3512, 3527, 3531, 3515, 3496, 3502, 3486, 3462, 3427, 3452, 3465, 3506, 3508, 3515, 3535, 3538, 3559, 3563, 3539, 3574, 3543, 3542, 3556, 3541, 3570, 3576, 3561, 3536, 3568, 3552, 3529, 3557, 3520, 3508, 3499, 3521, 3567, 3513, 3524, 3499, 3484, 3533, 3540, 3543, 3549, 3576, 3540, 3518, 3498, 3540, 3548, 3530, 3537, 3521, 3541, 3507, 3523, 3512, 3536, 3543, 3524, 3526, 3529, 3528, 3510, 3471, 3549, 3550, 3536, 3537, 3506, 3504, 3503, 3523, 3503, 3519, 3531, 3519, 3539, 3524, 3539, 3561, 3539, 3543, 3505, 3557, 3548, 3552, 3541, 3535, 3527, 3547, 3554, 3536, 3515, 3554, 3522, 3549, 3558, 3530, 3543, 3546, 3533, 3525, 3585, 3558, 3495, 3527, 3533, 3557, 3529, 3518, 3562, 3522, 3477, 3529, 3513, 3502, 3491, 3477, 3528, 3534, 3523, 3528, 3526, 3537, 3517, 3545, 3514, 3513, 3560, 3484, 3472, 3493, 3467, 3522, 3473, 3520, 3493, 3522, 3536, 3521, 3528, 3510, 3520, 3512, 3544, 3562, 3592, 3521, 3516, 3512, 3489, 3535, 3498, 3520, 3535, 3509, 3572, 3504, 3467, 3500, 3516, 3570, 3480, 3528, 3486, 3533, 3530, 3528, 3566, 3533, 3518, 3570, 3572, 3541, 3528, 3513, 3568, 3526, 3462, 3549, 3526, 3504, 3532, 3501, 3567, 3530, 3528, 3510, 3498, 3538, 3478, 3528, 3502, 3536, 3539, 3484, 3582, 3520, 3548, 3503, 3467, 3512, 3511, 3469, 3443, 3514, 3500, 3616, 3550, 3492, 3540, 3500, 3544, 3490, 3471, 3531, 3462, 3523, 3526, 3509, 3566, 3523, 3536, 3518, 3492, 3519, 3491, 3495, 3529, 3478, 3534, 3483, 3494, 3474, 3497, 3438, 3480, 3470, 3479, 3460],
      "WindowCenter": [794.0, 792.0, 793.0, 796.0, 796.0, 795.0, 795.0, 796.0, 797.0, 797.0, 797.0, 797.0, 798.0, 798.0, 798.0, 799.0, 800.0, 800.0, 800.0, 801.0, 802.0, 802.0, 801.0, 800.0, 799.0, 800.0, 801.0, 799.0, 797.0, 796.0, 796.0, 796.0, 796.0, 796.0, 795.0, 796.0, 797.0, 797.0, 797.0, 797.0, 797.0, 796.0, 797.0, 797.0, 797.0, 797.0, 796.0, 798.0, 798.0, 798.0, 797.0, 796.0, 798.0, 799.0, 798.0, 798.0, 797.0, 797.0, 798.0, 798.0, 797.0, 797.0, 798.0, 798.0, 799.0, 799.0, 798.0, 797.0, 797.0, 798.0, 799.0, 798.0, 798.0, 797.0, 796.0, 796.0, 797.0, 799.0, 800.0, 798.0, 797.0, 796.0, 796.0, 797.0, 800.0, 800.0, 799.0, 798.0, 797.0, 797.0, 798.0, 798.0, 798.0, 797.0, 796.0, 797.0, 799.0, 799.0, 797.0, 797.0, 797.0, 798.0, 798.0, 799.0, 798.0, 798.0, 799.0, 801.0, 802.0, 801.0, 800.0, 799.0, 799.0, 798.0, 799.0, 799.0, 798.0, 796.0, 797.0, 798.0, 798.0, 797.0, 796.0, 796.0, 795.0, 796.0, 797.0, 796.0, 796.0, 797.0, 799.0, 799.0, 798.0, 797.0, 796.0, 797.0, 798.0, 798.0, 797.0, 796.0, 796.0, 798.0, 797.0, 796.0, 797.0, 796.0, 797.0, 798.0, 798.0, 798.0, 798.0, 798.0, 797.0, 796.0, 795.0, 795.0, 795.0, 795.0, 796.0, 796.0, 796.0, 796.0, 795.0, 795.0, 797.0, 797.0, 797.0, 795.0, 794.0, 793.0, 793.0, 793.0, 797.0, 799.0, 799.0, 798.0, 797.0, 797.0, 797.0, 800.0, 801.0, 799.0, 796.0, 795.0, 795.0, 795.0, 795.0, 796.0, 797.0, 797.0, 797.0, 797.0, 797.0, 796.0, 795.0, 795.0, 796.0, 797.0, 798.0, 796.0, 795.0, 795.0, 795.0, 796.0, 796.0, 795.0, 795.0, 795.0, 796.0, 797.0, 797.0, 796.0, 796.0, 796.0, 798.0, 798.0, 798.0, 799.0, 799.0, 799.0, 799.0, 797.0, 796.0, 797.0, 797.0, 797.0, 798.0, 797.0, 799.0, 799.0, 798.0, 797.0, 796.0, 796.0, 796.0, 795.0, 795.0, 795.0, 796.0, 796.0, 797.0, 797.0, 797.0, 796.0, 796.0, 796.0, 797.0, 797.0, 798.0, 798.0, 800.0, 801.0, 801.0, 798.0, 797.0, 796.0],
      "WindowWidth": [1698.0, 1692.0, 1694.0, 1701.0, 1703.0, 1700.0, 1699.0, 1703.0, 1706.0, 1705.0, 1705.0, 1706.0, 1707.0, 1707.0, 1707.0, 1709.0, 1712.0, 1713.0, 1714.0, 1715.0, 1718.0, 1717.0, 1714.0, 1712.0, 1711.0, 1713.0, 1714.0, 1710.0, 1705.0, 1702.0, 1701.0, 1702.0, 1702.0, 1701.0, 1699.0, 1702.0, 1704.0, 1704.0, 1704.0, 1703.0, 1703.0, 1702.0, 1704.0, 1705.0, 1704.0, 1704.0, 1703.0, 1706.0, 1707.0, 1706.0, 1704.0, 1704.0, 1708.0, 1709.0, 1708.0, 1707.0, 1704.0, 1704.0, 1706.0, 1706.0, 1705.0, 1705.0, 1706.0, 1707.0, 1708.0, 1708.0, 1706.0, 1705.0, 1705.0, 1708.0, 1709.0, 1707.0, 1706.0, 1705.0, 1702.0, 1701.0, 1704.0, 1711.0, 1711.0, 1705.0, 1703.0, 1701.0, 1700.0, 1704.0, 1712.0, 1712.0, 1708.0, 1706.0, 1703.0, 1704.0, 1706.0, 1706.0, 1705.0, 1704.0, 1702.0, 1705.0, 1708.0, 1709.0, 1705.0, 1703.0, 1704.0, 1706.0, 1708.0, 1709.0, 1707.0, 1707.0, 1710.0, 1714.0, 1716.0, 1715.0, 1710.0, 1710.0, 1709.0, 1708.0, 1708.0, 1709.0, 1706.0, 1702.0, 1704.0, 1705.0, 1705.0, 1704.0, 1702.0, 1700.0, 1699.0, 1700.0, 1703.0, 1702.0, 1701.0, 1704.0, 1709.0, 1709.0, 1706.0, 1702.0, 1701.0, 1703.0, 1706.0, 1706.0, 1703.0, 1702.0, 1702.0, 1706.0, 1704.0, 1701.0, 1702.0, 1701.0, 1703.0, 1707.0, 1707.0, 1705.0, 1705.0, 1705.0, 1702.0, 1700.0, 1699.0, 1699.0, 1699.0, 1698.0, 1700.0, 1702.0, 1702.0, 1700.0, 1699.0, 1699.0, 1702.0, 1704.0, 1703.0, 1699.0, 1695.0, 1693.0, 1693.0, 1695.0, 1704.0, 1710.0, 1710.0, 1706.0, 1703.0, 1705.0, 1705.0, 1711.0, 1713.0, 1708.0, 1701.0, 1699.0, 1699.0, 1699.0, 1698.0, 1701.0, 1703.0, 1704.0, 1702.0, 1703.0, 1704.0, 1701.0, 1697.0, 1698.0, 1700.0, 1704.0, 1705.0, 1700.0, 1697.0, 1698.0, 1699.0, 1700.0, 1700.0, 1699.0, 1698.0, 1698.0, 1701.0, 1704.0, 1703.0, 1701.0, 1702.0, 1702.0, 1706.0, 1706.0, 1705.0, 1707.0, 1709.0, 1708.0, 1707.0, 1704.0, 1701.0, 1703.0, 1702.0, 1704.0, 1705.0, 1704.0, 1708.0, 1708.0, 1705.0, 1703.0, 1700.0, 1701.0, 1700.0, 1698.0, 1699.0, 1698.0, 1700.0, 1701.0, 1702.0, 1703.0, 1702.0, 1701.0, 1701.0, 1700.0, 1702.0, 1703.0, 1705.0, 1706.0, 1710.0, 1714.0, 1712.0, 1705.0, 1703.0, 1700.0]
    },
    "slices": {}
  }
}