{
 "AcquisitionMatrixPE": 100,
 "AcquisitionNumber": 1,
 "AcquisitionTime": "13:44:36.105000",
 "BandwidthPerPixelPhaseEncode": 18.519,
 "BaseResolution": 100,
 "BodyPartExamined": "BRAIN",
 "ConsistencyInfo": "N4_VE11C_LATEST_20160120",
 "ConversionSoftware": "dcm2niix",
 "ConversionSoftwareVersion": "v1.0.20180622 GCC4.9.2",
 "DerivedVendorReportedEchoSpacing": 0.000539986,
 "DeviceSerialNumber": "166078",
 "DwellTime": 2.1e-06,
 "EchoTime": 0.034,
 "EchoTrainLength": 100,
 "EffectiveEchoSpacing": 0.000539986,
 "FlipAngle": 90,
 "ImageOrientationPatientDICOM": [
  0.998376,
  -0.0339378,
  0.0457578,
  0.0383538,
  0.994312,
  -0.0993649
 ],
 "ImageType": [
  "ORIGINAL",
  "PRIMARY",
  "M",
  "ND",
  "MOSAIC"
 ],
 "InPlanePhaseEncodingDirectionDICOM": "COL",
 "InstitutionAddress": "Street_StreetNo_Bei_Jing_District_CN_ZIP",
 "InstitutionName": "BeiJing_Normal_University",
 "InstitutionalDepartmentName": "Department",
 "MRAcquisitionType": "2D",
 "MagneticFieldStrength": 3,
 "Manufacturer": "Siemens",
 "ManufacturersModelName": "Prisma",
 "Modality": "MR",
 "MultibandAccelerationFactor": 3,
 "PartialFourier": 1,
 "PatientPosition": "HFS",
 "PercentPhaseFOV": 100,
 "PhaseEncodingDirection": "j-",
 "PhaseEncodingSteps": 100,
 "PhaseResolution": 1,
 "PixelBandwidth": 2380,
 "ProcedureStepDescription": "BNU_P2018_64CH_Zhen.ZongLei",
 "ProtocolName": "bold_100x100_s3_2x2x2_static_256",
 "PulseSequenceDetails": "%SiemensSeq%_ep2d_bold",
 "ReceiveCoilActiveElements": "HC1-7;NC1",
 "ReceiveCoilName": "HeadNeck_64",
 "ReconMatrixPE": 100,
 "RepetitionTime": 2,
 "SAR": 0.0737135,
 "ScanOptions": "FS",
 "ScanningSequence": "EP",
 "SequenceName": "_epfid2d1_100",
 "SequenceVariant": "SK",
 "SeriesDescription": "bold_100x100_s3_2x2x2_static_256",
 "SeriesNumber": 7,
 "ShimSetting": [
  -5441,
  -11486,
  -1282,
  282,
  60,
  -141,
  -174,
  68
 ],
 "SliceThickness": 2,
 "SliceTiming": [
  1.485,
  0,
  0.99,
  0.0825,
  1.0725,
  0.165,
  1.155,
  0.2475,
  1.2375,
  0.33,
  1.32,
  0.4125,
  1.4025,
  0.5775,
  1.5675,
  0.66,
  1.65,
  0.7425,
  1.7325,
  0.825,
  1.815,
  0.9075,
  1.8975,
  0.495,
  1.485,
  0,
  0.99,
  0.0825,
  1.0725,
  0.165,
  1.155,
  0.2475,
  1.2375,
  0.33,
  1.32,
  0.4125,
  1.4025,
  0.5775,
  1.5675,
  0.66,
  1.65,
  0.7425,
  1.7325,
  0.825,
  1.815,
  0.9075,
  1.8975,
  0.495,
  1.485,
  0,
  0.99,
  0.0825,
  1.0725,
  0.165,
  1.155,
  0.2475,
  1.2375,
  0.33,
  1.32,
  0.4125,
  1.4025,
  0.5775,
  1.5675,
  0.66,
  1.65,
  0.7425,
  1.7325,
  0.825,
  1.815,
  0.9075,
  1.8975,
  0.495
 ],
 "SoftwareVersions": "syngo_MR_E11",
 "SpacingBetweenSlices": 2,
 "StationName": "AWP166078",
 "TaskName": "imagenet",
 "TotalReadoutTime": 0.0534586,
 "TxRefAmp": 229.058,
 "dcmmeta_affine": [
  [
   -1.9967517852783203,
   0.07670750468969345,
   0.0842505618929863,
   95.02921295166016
  ],
  [
   0.06787559390068054,
   1.9886232614517212,
   -0.20191700756549835,
   -90.43597412109375
  ],
  [
   0.09151559323072433,
   0.19872979819774628,
   1.9879968166351318,
   -75.90318298339844
  ],
  [
   0.0,
   0.0,
   0.0,
   1.0
  ]
 ],
 "dcmmeta_reorient_transform": [
  [
   0.0,
   -1.0,
   0.0,
   99.0
  ],
  [
   1.0,
   0.0,
   0.0,
   0.0
  ],
  [
   0.0,
   0.0,
   1.0,
   0.0
  ],
  [
   0.0,
   0.0,
   0.0,
   1.0
  ]
 ],
 "dcmmeta_shape": [
  100,
  100,
  72,
  256
 ],
 "dcmmeta_slice_dim": 2,
 "dcmmeta_version": 0.6,
 "global": {
  "const": {
   "AcquisitionMatrix": [
    100,
    0,
    0,
    100
   ],
   "AngioFlag": "N",
   "BitsAllocated": 16,
   "BitsStored": 12,
   "BodyPartExamined": "BRAIN",
   "Columns": 900,
   "EchoNumbers": 1,
   "EchoTime": 34.0,
   "EchoTrainLength": 100,
   "FlipAngle": 90.0,
   "HighBit": 11,
   "ImageOrientationPatient": [
    0.99837590619063,
    -0.0339377951438,
    0.04575779713695,
    0.03835375329078,
    0.99431162421185,
    -0.0993649010753
   ],
   "ImagePositionPatient": [
    -932.00698051772,
    -874.73678719522,
    -13.343248026532
   ],
   "ImageType": [
    "ORIGINAL",
    "PRIMARY",
    "M",
    "ND",
    "MOSAIC"
   ],
   "ImagedNucleus": "1H",
   "ImagingFrequency": 123.257758,
   "InPlanePhaseEncodingDirection": "COL",
   "MRAcquisitionType": "2D",
   "MagneticFieldStrength": 3.0,
   "Manufacturer": "SIEMENS",
   "ManufacturerModelName": "Prisma",
   "Modality": "MR",
   "NumberOfAverages": 1.0,
   "NumberOfPhaseEncodingSteps": 100,
   "PercentPhaseFieldOfView": 100.0,
   "PercentSampling": 100.0,
   "PerformedProcedureStepStartTime": "130256.437000",
   "PhotometricInterpretation": "MONOCHROME2",
   "PixelBandwidth": 2380.0,
   "PixelRepresentation": 0,
   "PixelSpacing": [
    2.0,
    2.0
   ],
   "ProtocolName": "bold_100x100_s3_2x2x2_static_256",
   "RepetitionTime": 2000.0,
   "Rows": 900,
   "SAR": 0.07371350160457,
   "SamplesPerPixel": 1,
   "ScanOptions": "FS",
   "ScanningSequence": "EP",
   "SequenceName": "*epfid2d1_100",
   "SequenceVariant": "SK",
   "SeriesDescription": "bold_100x100_s3_2x2x2_static_256",
   "SeriesNumber": 7,
   "SeriesTime": "134438.814000",
   "SliceLocation": -62.314228191848,
   "SliceThickness": 2.0,
   "SmallestImagePixelValue": 0,
   "SoftwareVersions": "syngo MR E11",
   "SpacingBetweenSlices": 1.9999999390425,
   "SpecificCharacterSet": "ISO_IR 100",
   "StudyID": "1",
   "StudyTime": "130256.355000",
   "TransmitCoilName": "Body",
   "VariableFlipAngleFlag": "N",
   "WindowCenterWidthExplanation": "Algo1",
   "dBdt": 0.0
  },
  "slices": {}
 },
 "time": {
  "samples": {
   "AcquisitionNumber": [
    1,
    2,
    3,
    4,
    5,
    6,
    7,
    8,
    9,
    10,
    11,
    12,
    13,
    14,
    15,
    16,
    17,
    18,
    19,
    20,
    21,
    22,
    23,
    24,
    25,
    26,
    27,
    28,
    29,
    30,
    31,
    32,
    33,
    34,
    35,
    36,
    37,
    38,
    39,
    40,
    41,
    42,
    43,
    44,
    45,
    46,
    47,
    48,
    49,
    50,
    51,
    52,
    53,
    54,
    55,
    56,
    57,
    58,
    59,
    60,
    61,
    62,
    63,
    64,
    65,
    66,
    67,
    68,
    69,
    70,
    71,
    72,
    73,
    74,
    75,
    76,
    77,
    78,
    79,
    80,
    81,
    82,
    83,
    84,
    85,
    86,
    87,
    88,
    89,
    90,
    91,
    92,
    93,
    94,
    95,
    96,
    97,
    98,
    99,
    100,
    101,
    102,
    103,
    104,
    105,
    106,
    107,
    108,
    109,
    110,
    111,
    112,
    113,
    114,
    115,
    116,
    117,
    118,
    119,
    120,
    121,
    122,
    123,
    124,
    125,
    126,
    127,
    128,
    129,
    130,
    131,
    132,
    133,
    134,
    135,
    136,
    137,
    138,
    139,
    140,
    141,
    142,
    143,
    144,
    145,
    146,
    147,
    148,
    149,
    150,
    151,
    152,
    153,
    154,
    155,
    156,
    157,
    158,
    159,
    160,
    161,
    162,
    163,
    164,
    165,
    166,
    167,
    168,
    169,
    170,
    171,
    172,
    173,
    174,
    175,
    176,
    177,
    178,
    179,
    180,
    181,
    182,
    183,
    184,
    185,
    186,
    187,
    188,
    189,
    190,
    191,
    192,
    193,
    194,
    195,
    196,
    197,
    198,
    199,
    200,
    201,
    202,
    203,
    204,
    205,
    206,
    207,
    208,
    209,
    210,
    211,
    212,
    213,
    214,
    215,
    216,
    217,
    218,
    219,
    220,
    221,
    222,
    223,
    224,
    225,
    226,
    227,
    228,
    229,
    230,
    231,
    232,
    233,
    234,
    235,
    236,
    237,
    238,
    239,
    240,
    241,
    242,
    243,
    244,
    245,
    246,
    247,
    248,
    249,
    250,
    251,
    252,
    253,
    254,
    255,
    256
   ],
   "AcquisitionTime": [
    "134436.105000",
    "134438.105000",
    "134440.105000",
    "134442.105000",
    "134444.105000",
    "134446.105000",
    "134448.105000",
    "134450.105000",
    "134452.105000",
    "134454.105000",
    "134456.105000",
    "134458.105000",
    "134500.105000",
    "134502.105000",
    "134504.105000",
    "134506.105000",
    "134508.105000",
    "134510.105000",
    "134512.105000",
    "134514.105000",
    "134516.105000",
    "134518.105000",
    "134520.105000",
    "134522.105000",
    "134524.105000",
    "134526.105000",
    "134528.105000",
    "134530.105000",
    "134532.105000",
    "134534.105000",
    "134536.105000",
    "134538.105000",
    "134540.105000",
    "134542.105000",
    "134544.105000",
    "134546.105000",
    "134548.105000",
    "134550.105000",
    "134552.105000",
    "134554.105000",
    "134556.105000",
    "134558.105000",
    "134600.105000",
    "134602.105000",
    "134604.105000",
    "134606.105000",
    "134608.105000",
    "134610.105000",
    "134612.105000",
    "134614.105000",
    "134616.105000",
    "134618.105000",
    "134620.105000",
    "134622.105000",
    "134624.105000",
    "134626.105000",
    "134628.105000",
    "134630.105000",
    "134632.105000",
    "134634.105000",
    "134636.105000",
    "134638.105000",
    "134640.105000",
    "134642.105000",
    "134644.105000",
    "134646.105000",
    "134648.105000",
    "134650.105000",
    "134652.105000",
    "134654.105000",
    "134656.105000",
    "134658.105000",
    "134700.105000",
    "134702.105000",
    "134704.105000",
    "134706.105000",
    "134708.105000",
    "134710.105000",
    "134712.105000",
    "134714.105000",
    "134716.105000",
    "134718.105000",
    "134720.105000",
    "134722.105000",
    "134724.105000",
    "134726.105000",
    "134728.105000",
    "134730.105000",
    "134732.105000",
    "134734.105000",
    "134736.105000",
    "134738.105000",
    "134740.105000",
    "134742.105000",
    "134744.105000",
    "134746.105000",
    "134748.105000",
    "134750.105000",
    "134752.105000",
    "134754.105000",
    "134756.105000",
    "134758.105000",
    "134800.105000",
    "134802.105000",
    "134804.105000",
    "134806.105000",
    "134808.105000",
    "134810.105000",
    "134812.105000",
    "134814.105000",
    "134816.105000",
    "134818.105000",
    "134820.105000",
    "134822.105000",
    "134824.105000",
    "134826.105000",
    "134828.105000",
    "134830.105000",
    "134832.105000",
    "134834.105000",
    "134836.105000",
    "134838.105000",
    "134840.105000",
    "134842.105000",
    "134844.105000",
    "134846.105000",
    "134848.105000",
    "134850.105000",
    "134852.105000",
    "134854.105000",
    "134856.105000",
    "134858.105000",
    "134900.105000",
    "134902.105000",
    "134904.105000",
    "134906.105000",
    "134908.105000",
    "134910.105000",
    "134912.105000",
    "134914.105000",
    "134916.105000",
    "134918.105000",
    "134920.105000",
    "134922.105000",
    "134924.105000",
    "134926.105000",
    "134928.105000",
    "134930.105000",
    "134932.105000",
    "134934.105000",
    "134936.105000",
    "134938.105000",
    "134940.105000",
    "134942.105000",
    "134944.105000",
    "134946.105000",
    "134948.105000",
    "134950.105000",
    "134952.105000",
    "134954.105000",
    "134956.105000",
    "134958.105000",
    "135000.105000",
    "135002.105000",
    "135004.105000",
    "135006.105000",
    "135008.105000",
    "135010.105000",
    "135012.105000",
    "135014.105000",
    "135016.105000",
    "135018.105000",
    "135020.105000",
    "135022.105000",
    "135024.105000",
    "135026.105000",
    "135028.105000",
    "135030.105000",
    "135032.105000",
    "135034.105000",
    "135036.105000",
    "135038.105000",
    "135040.105000",
    "135042.105000",
    "135044.105000",
    "135046.105000",
    "135048.105000",
    "135050.105000",
    "135052.105000",
    "135054.105000",
    "135056.105000",
    "135058.105000",
    "135100.105000",
    "135102.105000",
    "135104.105000",
    "135106.105000",
    "135108.105000",
    "135110.105000",
    "135112.105000",
    "135114.105000",
    "135116.105000",
    "135118.105000",
    "135120.105000",
    "135122.105000",
    "135124.105000",
    "135126.105000",
    "135128.105000",
    "135130.105000",
    "135132.105000",
    "135134.105000",
    "135136.105000",
    "135138.105000",
    "135140.105000",
    "135142.105000",
    "135144.105000",
    "135146.105000",
    "135148.105000",
    "135150.105000",
    "135152.105000",
    "135154.105000",
    "135156.105000",
    "135158.105000",
    "135200.105000",
    "135202.105000",
    "135204.105000",
    "135206.105000",
    "135208.105000",
    "135210.105000",
    "135212.105000",
    "135214.105000",
    "135216.105000",
    "135218.105000",
    "135220.105000",
    "135222.105000",
    "135224.105000",
    "135226.105000",
    "135228.105000",
    "135230.105000",
    "135232.105000",
    "135234.105000",
    "135236.105000",
    "135238.105000",
    "135240.105000",
    "135242.105000",
    "135244.105000",
    "135246.105000",
    "135248.105000",
    "135250.105000",
    "135252.105000",
    "135254.105000",
    "135256.105000",
    "135258.105000",
    "135300.105000",
    "135302.105000",
    "135304.105000",
    "135306.105000"
   ],
   "ContentTime": [
    "134438.818000",
    "134440.313000",
    "134442.313000",
    "134444.314000",
    "134446.315000",
    "134448.313000",
    "134450.313000",
    "134452.314000",
    "134454.313000",
    "134456.314000",
    "134458.313000",
    "134500.314000",
    "134502.314000",
    "134504.313000",
    "134506.313000",
    "134508.313000",
    "134510.313000",
    "134512.313000",
    "134514.313000",
    "134516.314000",
    "134518.314000",
    "134520.315000",
    "134522.314000",
    "134524.313000",
    "134526.313000",
    "134528.313000",
    "134530.313000",
    "134532.314000",
    "134534.313000",
    "134536.315000",
    "134538.314000",
    "134540.313000",
    "134542.313000",
    "134544.314000",
    "134546.314000",
    "134548.314000",
    "134550.314000",
    "134552.314000",
    "134554.314000",
    "134556.315000",
    "134558.313000",
    "134600.313000",
    "134602.314000",
    "134604.314000",
    "134606.313000",
    "134608.314000",
    "134610.314000",
    "134612.314000",
    "134614.314000",
    "134616.314000",
    "134618.314000",
    "134620.314000",
    "134622.313000",
    "134624.313000",
    "134626.314000",
    "134628.315000",
    "134630.314000",
    "134632.313000",
    "134634.314000",
    "134636.314000",
    "134638.313000",
    "134640.314000",
    "134642.314000",
    "134644.314000",
    "134646.315000",
    "134648.314000",
    "134650.313000",
    "134652.313000",
    "134654.313000",
    "134656.314000",
    "134658.313000",
    "134700.314000",
    "134702.314000",
    "134704.315000",
    "134706.315000",
    "134708.314000",
    "134710.314000",
    "134712.313000",
    "134714.313000",
    "134716.314000",
    "134718.313000",
    "134720.313000",
    "134722.315000",
    "134724.313000",
    "134726.313000",
    "134728.314000",
    "134730.313000",
    "134732.314000",
    "134734.313000",
    "134736.313000",
    "134738.314000",
    "134740.314000",
    "134742.313000",
    "134744.313000",
    "134746.313000",
    "134748.314000",
    "134750.314000",
    "134752.313000",
    "134754.314000",
    "134756.315000",
    "134758.314000",
    "134800.314000",
    "134802.314000",
    "134804.313000",
    "134806.313000",
    "134808.314000",
    "134810.314000",
    "134812.313000",
    "134814.315000",
    "134816.314000",
    "134818.313000",
    "134820.314000",
    "134822.314000",
    "134824.314000",
    "134826.313000",
    "134828.313000",
    "134830.314000",
    "134832.314000",
    "134834.314000",
    "134836.314000",
    "134838.313000",
    "134840.313000",
    "134842.313000",
    "134844.313000",
    "134846.314000",
    "134848.315000",
    "134850.315000",
    "134852.313000",
    "134854.314000",
    "134856.313000",
    "134858.313000",
    "134900.314000",
    "134902.313000",
    "134904.314000",
    "134906.315000",
    "134908.315000",
    "134910.313000",
    "134912.314000",
    "134914.313000",
    "134916.313000",
    "134918.313000",
    "134920.314000",
    "134922.314000",
    "134924.315000",
    "134926.315000",
    "134928.313000",
    "134930.314000",
    "134932.313000",
    "134934.314000",
    "134936.313000",
    "134938.314000",
    "134940.314000",
    "134942.315000",
    "134944.314000",
    "134946.314000",
    "134948.314000",
    "134950.313000",
    "134952.314000",
    "134954.314000",
    "134956.313000",
    "134958.315000",
    "135000.314000",
    "135002.314000",
    "135004.313000",
    "135006.314000",
    "135008.313000",
    "135010.314000",
    "135012.314000",
    "135014.313000",
    "135016.315000",
    "135018.315000",
    "135020.314000",
    "135022.313000",
    "135024.314000",
    "135026.314000",
    "135028.314000",
    "135030.313000",
    "135032.314000",
    "135034.315000",
    "135036.315000",
    "135038.313000",
    "135040.314000",
    "135042.313000",
    "135044.314000",
    "135046.313000",
    "135048.313000",
    "135050.314000",
    "135052.315000",
    "135054.314000",
    "135056.317000",
    "135058.314000",
    "135100.313000",
    "135102.314000",
    "135104.313000",
    "135106.313000",
    "135108.315000",
    "135110.314000",
    "135112.314000",
    "135114.314000",
    "135116.313000",
    "135118.313000",
    "135120.313000",
    "135122.313000",
    "135124.314000",
    "135126.315000",
    "135128.314000",
    "135130.313000",
    "135132.314000",
    "135134.314000",
    "135136.313000",
    "135138.313000",
    "135140.314000",
    "135142.313000",
    "135144.314000",
    "135146.314000",
    "135148.313000",
    "135150.314000",
    "135152.314000",
    "135154.314000",
    "135156.314000",
    "135158.326000",
    "135200.314000",
    "135202.315000",
    "135204.314000",
    "135206.313000",
    "135208.313000",
    "135210.313000",
    "135212.313000",
    "135214.313000",
    "135216.313000",
    "135218.314000",
    "135220.315000",
    "135222.313000",
    "135224.314000",
    "135226.314000",
    "135228.314000",
    "135230.314000",
    "135232.314000",
    "135234.314000",
    "135236.315000",
    "135238.315000",
    "135240.314000",
    "135242.313000",
    "135244.314000",
    "135246.314000",
    "135248.313000",
    "135250.314000",
    "135252.314000",
    "135254.315000",
    "135256.313000",
    "135258.314000",
    "135300.313000",
    "135302.313000",
    "135304.313000",
    "135306.314000",
    "135307.931000"
   ],
   "InstanceCreationTime": [
    "134438.818000",
    "134440.313000",
    "134442.313000",
    "134444.314000",
    "134446.315000",
    "134448.313000",
    "134450.313000",
    "134452.314000",
    "134454.313000",
    "134456.314000",
    "134458.313000",
    "134500.314000",
    "134502.314000",
    "134504.313000",
    "134506.313000",
    "134508.313000",
    "134510.313000",
    "134512.313000",
    "134514.313000",
    "134516.314000",
    "134518.314000",
    "134520.315000",
    "134522.314000",
    "134524.313000",
    "134526.313000",
    "134528.313000",
    "134530.313000",
    "134532.314000",
    "134534.313000",
    "134536.315000",
    "134538.314000",
    "134540.313000",
    "134542.313000",
    "134544.314000",
    "134546.314000",
    "134548.314000",
    "134550.314000",
    "134552.314000",
    "134554.314000",
    "134556.315000",
    "134558.313000",
    "134600.313000",
    "134602.314000",
    "134604.314000",
    "134606.313000",
    "134608.314000",
    "134610.314000",
    "134612.314000",
    "134614.314000",
    "134616.314000",
    "134618.314000",
    "134620.314000",
    "134622.313000",
    "134624.313000",
    "134626.314000",
    "134628.315000",
    "134630.314000",
    "134632.313000",
    "134634.314000",
    "134636.314000",
    "134638.313000",
    "134640.314000",
    "134642.314000",
    "134644.314000",
    "134646.315000",
    "134648.314000",
    "134650.313000",
    "134652.313000",
    "134654.313000",
    "134656.314000",
    "134658.313000",
    "134700.314000",
    "134702.314000",
    "134704.315000",
    "134706.315000",
    "134708.314000",
    "134710.314000",
    "134712.313000",
    "134714.313000",
    "134716.314000",
    "134718.313000",
    "134720.313000",
    "134722.315000",
    "134724.313000",
    "134726.313000",
    "134728.314000",
    "134730.313000",
    "134732.314000",
    "134734.313000",
    "134736.313000",
    "134738.314000",
    "134740.314000",
    "134742.313000",
    "134744.313000",
    "134746.313000",
    "134748.314000",
    "134750.314000",
    "134752.313000",
    "134754.314000",
    "134756.315000",
    "134758.314000",
    "134800.314000",
    "134802.314000",
    "134804.313000",
    "134806.313000",
    "134808.314000",
    "134810.314000",
    "134812.313000",
    "134814.315000",
    "134816.314000",
    "134818.313000",
    "134820.314000",
    "134822.314000",
    "134824.314000",
    "134826.313000",
    "134828.313000",
    "134830.314000",
    "134832.314000",
    "134834.314000",
    "134836.314000",
    "134838.313000",
    "134840.313000",
    "134842.313000",
    "134844.313000",
    "134846.314000",
    "134848.315000",
    "134850.315000",
    "134852.313000",
    "134854.314000",
    "134856.313000",
    "134858.313000",
    "134900.314000",
    "134902.313000",
    "134904.314000",
    "134906.315000",
    "134908.315000",
    "134910.313000",
    "134912.314000",
    "134914.313000",
    "134916.313000",
    "134918.313000",
    "134920.314000",
    "134922.314000",
    "134924.315000",
    "134926.315000",
    "134928.313000",
    "134930.314000",
    "134932.313000",
    "134934.314000",
    "134936.313000",
    "134938.314000",
    "134940.314000",
    "134942.315000",
    "134944.314000",
    "134946.314000",
    "134948.314000",
    "134950.313000",
    "134952.314000",
    "134954.314000",
    "134956.313000",
    "134958.315000",
    "135000.314000",
    "135002.314000",
    "135004.313000",
    "135006.314000",
    "135008.313000",
    "135010.314000",
    "135012.314000",
    "135014.313000",
    "135016.315000",
    "135018.315000",
    "135020.314000",
    "135022.313000",
    "135024.314000",
    "135026.314000",
    "135028.314000",
    "135030.313000",
    "135032.314000",
    "135034.315000",
    "135036.315000",
    "135038.313000",
    "135040.314000",
    "135042.313000",
    "135044.314000",
    "135046.313000",
    "135048.313000",
    "135050.314000",
    "135052.315000",
    "135054.314000",
    "135056.317000",
    "135058.314000",
    "135100.313000",
    "135102.314000",
    "135104.313000",
    "135106.313000",
    "135108.315000",
    "135110.314000",
    "135112.314000",
    "135114.314000",
    "135116.313000",
    "135118.313000",
    "135120.313000",
    "135122.313000",
    "135124.314000",
    "135126.315000",
    "135128.314000",
    "135130.313000",
    "135132.314000",
    "135134.314000",
    "135136.313000",
    "135138.313000",
    "135140.314000",
    "135142.313000",
    "135144.314000",
    "135146.314000",
    "135148.313000",
    "135150.314000",
    "135152.314000",
    "135154.314000",
    "135156.314000",
    "135158.326000",
    "135200.314000",
    "135202.315000",
    "135204.314000",
    "135206.313000",
    "135208.313000",
    "135210.313000",
    "135212.313000",
    "135214.313000",
    "135216.313000",
    "135218.314000",
    "135220.315000",
    "135222.313000",
    "135224.314000",
    "135226.314000",
    "135228.314000",
    "135230.314000",
    "135232.314000",
    "135234.314000",
    "135236.315000",
    "135238.315000",
    "135240.314000",
    "135242.313000",
    "135244.314000",
    "135246.314000",
    "135248.313000",
    "135250.314000",
    "135252.314000",
    "135254.315000",
    "135256.313000",
    "135258.314000",
    "135300.313000",
    "135302.313000",
    "135304.313000",
    "135306.314000",
    "135307.931000"
   ],
   "InstanceNumber": [
    1,
    2,
    3,
    4,
    5,
    6,
    7,
    8,
    9,
    10,
    11,
    12,
    13,
    14,
    15,
    16,
    17,
    18,
    19,
    20,
    21,
    22,
    23,
    24,
    25,
    26,
    27,
    28,
    29,
    30,
    31,
    32,
    33,
    34,
    35,
    36,
    37,
    38,
    39,
    40,
    41,
    42,
    43,
    44,
    45,
    46,
    47,
    48,
    49,
    50,
    51,
    52,
    53,
    54,
    55,
    56,
    57,
    58,
    59,
    60,
    61,
    62,
    63,
    64,
    65,
    66,
    67,
    68,
    69,
    70,
    71,
    72,
    73,
    74,
    75,
    76,
    77,
    78,
    79,
    80,
    81,
    82,
    83,
    84,
    85,
    86,
    87,
    88,
    89,
    90,
    91,
    92,
    93,
    94,
    95,
    96,
    97,
    98,
    99,
    100,
    101,
    102,
    103,
    104,
    105,
    106,
    107,
    108,
    109,
    110,
    111,
    112,
    113,
    114,
    115,
    116,
    117,
    118,
    119,
    120,
    121,
    122,
    123,
    124,
    125,
    126,
    127,
    128,
    129,
    130,
    131,
    132,
    133,
    134,
    135,
    136,
    137,
    138,
    139,
    140,
    141,
    142,
    143,
    144,
    145,
    146,
    147,
    148,
    149,
    150,
    151,
    152,
    153,
    154,
    155,
    156,
    157,
    158,
    159,
    160,
    161,
    162,
    163,
    164,
    165,
    166,
    167,
    168,
    169,
    170,
    171,
    172,
    173,
    174,
    175,
    176,
    177,
    178,
    179,
    180,
    181,
    182,
    183,
    184,
    185,
    186,
    187,
    188,
    189,
    190,
    191,
    192,
    193,
    194,
    195,
    196,
    197,
    198,
    199,
    200,
    201,
    202,
    203,
    204,
    205,
    206,
    207,
    208,
    209,
    210,
    211,
    212,
    213,
    214,
    215,
    216,
    217,
    218,
    219,
    220,
    221,
    222,
    223,
    224,
    225,
    226,
    227,
    228,
    229,
    230,
    231,
    232,
    233,
    234,
    235,
    236,
    237,
    238,
    239,
    240,
    241,
    242,
    243,
    244,
    245,
    246,
    247,
    248,
    249,
    250,
    251,
    252,
    253,
    254,
    255,
    256
   ],
   "LargestImagePixelValue": [
    3419,
    3339,
    3345,
    3341,
    3368,
    3319,
    3340,
    3303,
    3326,
    3288,
    3293,
    3302,
    3321,
    3323,
    3313,
    3337,
    3323,
    3298,
    3300,
    3296,
    3288,
    3291,
    3286,
    3317,
    3267,
    3309,
    3265,
    3265,
    3322,
    3266,
    3323,
    3295,
    3288,
    3305,
    3271,
    3322,
    3270,
    3247,
    3230,
    3267,
    3251,
    3269,
    3309,
    3335,
    3343,
    3295,
    3286,
    3284,
    3293,
    3250,
    3301,
    3322,
    3305,
    3300,
    3274,
    3261,
    3256,
    3240,
    3304,
    3275,
    3270,
    3297,
    3262,
    3311,
    3262,
    3304,
    3267,
    3264,
    3316,
    3314,
    3330,
    3296,
    3249,
    3313,
    3265,
    3297,
    3272,
    3281,
    3279,
    3291,
    3293,
    3300,
    3266,
    3293,
    3289,
    3301,
    3307,
    3295,
    3308,
    3288,
    3267,
    3271,
    3274,
    3300,
    3287,
    3232,
    3273,
    3246,
    3268,
    3290,
    3252,
    3282,
    3255,
    3238,
    3285,
    3251,
    3287,
    3249,
    3332,
    3285,
    3280,
    3242,
    3274,
    3280,
    3271,
    3297,
    3255,
    3265,
    3272,
    3253,
    3308,
    3324,
    3279,
    3335,
    3307,
    3296,
    3266,
    3281,
    3286,
    3242,
    3281,
    3258,
    3265,
    3264,
    3305,
    3308,
    3280,
    3291,
    3235,
    3279,
    3263,
    3241,
    3227,
    3341,
    3296,
    3272,
    3326,
    3301,
    3293,
    3274,
    3233,
    3304,
    3288,
    3246,
    3320,
    3284,
    3281,
    3270,
    3252,
    3273,
    3281,
    3234,
    3271,
    3227,
    3260,
    3247,
    3299,
    3246,
    3290,
    3311,
    3285,
    3310,
    3261,
    3293,
    3310,
    3243,
    3287,
    3230,
    3266,
    3225,
    3264,
    3281,
    3228,
    3296,
    3268,
    3279,
    3219,
    3230,
    3250,
    3213,
    3330,
    3237,
    3298,
    3262,
    3259,
    3267,
    3277,
    3308,
    3226,
    3279,
    3265,
    3252,
    3266,
    3241,
    3281,
    3253,
    3264,
    3302,
    3225,
    3314,
    3224,
    3344,
    3253,
    3230,
    3271,
    3214,
    3283,
    3210,
    3260,
    3230,
    3249,
    3240,
    3246,
    3305,
    3247,
    3299,
    3243,
    3244,
    3327,
    3195,
    3199,
    3271,
    3207,
    3313,
    3192,
    3284,
    3208,
    3299,
    3193,
    3262,
    3260,
    3206,
    3396,
    3203,
    3365,
    3255,
    3299,
    3220,
    3288,
    3244,
    3237,
    3363,
    3314,
    3279,
    3209,
    3280
   ],
   "WindowCenter": [
    798.0,
    798.0,
    798.0,
    799.0,
    799.0,
    799.0,
    799.0,
    798.0,
    800.0,
    802.0,
    802.0,
    801.0,
    799.0,
    798.0,
    798.0,
    799.0,
    798.0,
    798.0,
    799.0,
    800.0,
    800.0,
    798.0,
    797.0,
    798.0,
    800.0,
    801.0,
    800.0,
    798.0,
    797.0,
    797.0,
    798.0,
    797.0,
    796.0,
    796.0,
    797.0,
    799.0,
    799.0,
    798.0,
    798.0,
    800.0,
    801.0,
    800.0,
    798.0,
    797.0,
    796.0,
    797.0,
    799.0,
    800.0,
    801.0,
    799.0,
    797.0,
    797.0,
    796.0,
    798.0,
    800.0,
    800.0,
    798.0,
    799.0,
    801.0,
    801.0,
    800.0,
    799.0,
    798.0,
    796.0,
    796.0,
    799.0,
    801.0,
    799.0,
    797.0,
    795.0,
    797.0,
    797.0,
    798.0,
    797.0,
    796.0,
    798.0,
    801.0,
    802.0,
    800.0,
    799.0,
    797.0,
    796.0,
    797.0,
    799.0,
    799.0,
    799.0,
    798.0,
    797.0,
    797.0,
    798.0,
    799.0,
    800.0,
    799.0,
    800.0,
    801.0,
    801.0,
    800.0,
    799.0,
    799.0,
    799.0,
    801.0,
    801.0,
    799.0,
    799.0,
    799.0,
    799.0,
    798.0,
    797.0,
    798.0,
    800.0,
