{
  "AcquisitionMatrixPE": 100,
  "AcquisitionNumber": 1,
  "AcquisitionTime": "14:06:51.782500",
  "BandwidthPerPixelPhaseEncode": 18.519,
  "BaseResolution": 100,
  "BodyPartExamined": "BRAIN",
  "ConsistencyInfo": "N4_VE11C_LATEST_20160120",
  "ConversionSoftware": "dcm2niix",
  "ConversionSoftwareVersion": "v1.0.20180622 GCC4.9.2",
  "DerivedVendorReportedEchoSpacing": 0.000539986,
  "DeviceSerialNumber": "166078",
  "DwellTime": 2.1e-06,
  "EchoTime": 0.034,
  "EchoTrainLength": 100,
  "EffectiveEchoSpacing": 0.000539986,
  "FlipAngle": 90,
  "ImageOrientationPatientDICOM": [0.998376, -0.0339378, 0.0457578, 0.0383538, 0.994312, -0.0993649],
  "ImageType": [
    "ORIGINAL",
    "PRIMARY",
    "M",
    "ND",
    "MOSAIC"
],
  "InPlanePhaseEncodingDirectionDICOM": "COL",
  "InstitutionAddress": "Street_StreetNo_Bei_Jing_District_CN_ZIP",
  "InstitutionName": "BeiJing_Normal_University",
  "InstitutionalDepartmentName": "Department",
  "MRAcquisitionType": "2D",
  "MagneticFieldStrength": 3,
  "Manufacturer": "Siemens",
  "ManufacturersModelName": "Prisma",
  "Modality": "MR",
  "MultibandAccelerationFactor": 3,
  "PartialFourier": 1,
  "PatientPosition": "HFS",
  "PercentPhaseFOV": 100,
  "PhaseEncodingDirection": "j-",
  "PhaseEncodingSteps": 100,
  "PhaseResolution": 1,
  "PixelBandwidth": 2380,
  "ProcedureStepDescription": "BNU_P2018_64CH_Zhen.ZongLei",
  "ProtocolName": "bold_100x100_s3_2x2x2_static_256",
  "PulseSequenceDetails": "%SiemensSeq%_ep2d_bold",
  "ReceiveCoilActiveElements": "HC1-7;NC1",
  "ReceiveCoilName": "HeadNeck_64",
  "ReconMatrixPE": 100,
  "RepetitionTime": 2,
  "SAR": 0.0737135,
  "ScanOptions": "FS",
  "ScanningSequence": "EP",
  "SequenceName": "_epfid2d1_100",
  "SequenceVariant": "SK",
  "SeriesDescription": "bold_100x100_s3_2x2x2_static_256",
  "SeriesNumber": 11,
  "ShimSetting": [-5441, -11486, -1282, 282, 60, -141, -174, 68],
  "SliceThickness": 2,
  "SliceTiming": [1.485, 0, 0.99, 0.0825, 1.0725, 0.165, 1.155, 0.2475, 1.2375, 0.33, 1.32, 0.4125, 1.4025, 0.5775, 1.5675, 0.66, 1.65, 0.7425, 1.7325, 0.825, 1.815, 0.9075, 1.8975, 0.495, 1.485, 0, 0.99, 0.0825, 1.0725, 0.165, 1.155, 0.2475, 1.2375, 0.33, 1.32, 0.4125, 1.4025, 0.5775, 1.5675, 0.66, 1.65, 0.7425, 1.7325, 0.825, 1.815, 0.9075, 1.8975, 0.495, 1.485, 0, 0.99, 0.0825, 1.0725, 0.165, 1.155, 0.2475, 1.2375, 0.33, 1.32, 0.4125, 1.4025, 0.5775, 1.5675, 0.66, 1.65, 0.7425, 1.7325, 0.825, 1.815, 0.9075, 1.8975, 0.495],
  "SoftwareVersions": "syngo_MR_E11",
  "SpacingBetweenSlices": 2,
  "StationName": "AWP166078",
  "TaskName": "naturalvision",
  "TotalReadoutTime": 0.0534586,
  "TxRefAmp": 229.058,
  "dcmmeta_affine": [
    [-1.9967517852783203, 0.07670750468969345, 0.0842505618929863, 95.02921295166016],
    [0.06787559390068054, 1.9886232614517212, -0.20191700756549835, -90.43597412109375],
    [0.09151559323072433, 0.19872979819774628, 1.9879968166351318, -75.90318298339844],
    [0.0, 0.0, 0.0, 1.0]
],
  "dcmmeta_reorient_transform": [
    [0.0, -1.0, 0.0, 99.0],
    [1.0, 0.0, 0.0, 0.0],
    [0.0, 0.0, 1.0, 0.0],
    [0.0, 0.0, 0.0, 1.0]
],
  "dcmmeta_shape": [100, 100, 72, 256],
  "dcmmeta_slice_dim": 2,
  "dcmmeta_version": 0.6,
  "global": {
    "const": {
      "AcquisitionMatrix": [100, 0, 0, 100],
      "AngioFlag": "N",
      "BitsAllocated": 16,
      "BitsStored": 12,
      "BodyPartExamined": "BRAIN",
      "Columns": 900,
      "EchoNumbers": 1,
      "EchoTime": 34.0,
      "EchoTrainLength": 100,
      "FlipAngle": 90.0,
      "HighBit": 11,
      "ImageOrientationPatient": [0.99837590619063, -0.0339377951438, 0.04575779713695, 0.03835375329078, 0.99431162421185, -0.0993649010753],
      "ImagePositionPatient": [-932.00698051772, -874.73678719522, -13.343248026532],
      "ImageType": [
        "ORIGINAL",
        "PRIMARY",
        "M",
        "ND",
        "MOSAIC"
],
      "ImagedNucleus": "1H",
      "ImagingFrequency": 123.25776,
      "InPlanePhaseEncodingDirection": "COL",
      "MRAcquisitionType": "2D",
      "MagneticFieldStrength": 3.0,
      "Manufacturer": "SIEMENS",
      "ManufacturerModelName": "Prisma",
      "Modality": "MR",
      "NumberOfAverages": 1.0,
      "NumberOfPhaseEncodingSteps": 100,
      "PercentPhaseFieldOfView": 100.0,
      "PercentSampling": 100.0,
      "PerformedProcedureStepStartTime": "130256.437000",
      "PhotometricInterpretation": "MONOCHROME2",
      "PixelBandwidth": 2380.0,
      "PixelRepresentation": 0,
      "PixelSpacing": [2.0, 2.0],
      "ProtocolName": "bold_100x100_s3_2x2x2_static_256",
      "RepetitionTime": 2000.0,
      "Rows": 900,
      "SAR": 0.07371350160457,
      "SamplesPerPixel": 1,
      "ScanOptions": "FS",
      "ScanningSequence": "EP",
      "SequenceName": "*epfid2d1_100",
      "SequenceVariant": "SK",
      "SeriesDescription": "bold_100x100_s3_2x2x2_static_256",
      "SeriesNumber": 11,
      "SeriesTime": "140654.113000",
      "SliceLocation": -62.314228191848,
      "SliceThickness": 2.0,
      "SmallestImagePixelValue": 0,
      "SoftwareVersions": "syngo MR E11",
      "SpacingBetweenSlices": 1.9999999390425,
      "SpecificCharacterSet": "ISO_IR 100",
      "StudyID": "1",
      "StudyTime": "130256.355000",
      "TransmitCoilName": "Body",
      "VariableFlipAngleFlag": "N",
      "WindowCenterWidthExplanation": "Algo1",
      "dBdt": 0.0},
    "slices": {}
  },
  "time": {
    "samples": {
      "AcquisitionNumber": [1, 2, 3, 4, 5, 6, 7, 8, 9, 10, 11, 12, 13, 14, 15, 16, 17, 18, 19, 20, 21, 22, 23, 24, 25, 26, 27, 28, 29, 30, 31, 32, 33, 34, 35, 36, 37, 38, 39, 40, 41, 42, 43, 44, 45, 46, 47, 48, 49, 50, 51, 52, 53, 54, 55, 56, 57, 58, 59, 60, 61, 62, 63, 64, 65, 66, 67, 68, 69, 70, 71, 72, 73, 74, 75, 76, 77, 78, 79, 80, 81, 82, 83, 84, 85, 86, 87, 88, 89, 90, 91, 92, 93, 94, 95, 96, 97, 98, 99, 100, 101, 102, 103, 104, 105, 106, 107, 108, 109, 110, 111, 112, 113, 114, 115, 116, 117, 118, 119, 120, 121, 122, 123, 124, 125, 126, 127, 128, 129, 130, 131, 132, 133, 134, 135, 136, 137, 138, 139, 140, 141, 142, 143, 144, 145, 146, 147, 148, 149, 150, 151, 152, 153, 154, 155, 156, 157, 158, 159, 160, 161, 162, 163, 164, 165, 166, 167, 168, 169, 170, 171, 172, 173, 174, 175, 176, 177, 178, 179, 180, 181, 182, 183, 184, 185, 186, 187, 188, 189, 190, 191, 192, 193, 194, 195, 196, 197, 198, 199, 200, 201, 202, 203, 204, 205, 206, 207, 208, 209, 210, 211, 212, 213, 214, 215, 216, 217, 218, 219, 220, 221, 222, 223, 224, 225, 226, 227, 228, 229, 230, 231, 232, 233, 234, 235, 236, 237, 238, 239, 240, 241, 242, 243, 244, 245, 246, 247, 248, 249, 250, 251, 252, 253, 254, 255, 256],
      "AcquisitionTime": ["140651.782500", "140653.782500", "140655.782500", "140657.782500", "140659.782500", "140701.782500", "140703.782500", "140705.782500", "140707.782500", "140709.782500", "140711.782500", "140713.782500", "140715.782500", "140717.782500", "140719.782500", "140721.782500", "140723.782500", "140725.782500", "140727.782500", "140729.782500", "140731.782500", "140733.782500", "140735.782500", "140737.782500", "140739.782500", "140741.782500", "140743.782500", "140745.782500", "140747.782500", "140749.782500", "140751.782500", "140753.782500", "140755.782500", "140757.782500", "140759.782500", "140801.782500", "140803.782500", "140805.782500", "140807.782500", "140809.782500", "140811.782500", "140813.782500", "140815.782500", "140817.782500", "140819.782500", "140821.782500", "140823.782500", "140825.782500", "140827.782500", "140829.782500", "140831.782500", "140833.782500", "140835.782500", "140837.782500", "140839.782500", "140841.782500", "140843.782500", "140845.782500", "140847.782500", "140849.782500", "140851.782500", "140853.782500", "140855.782500", "140857.782500", "140859.782500", "140901.782500", "140903.782500", "140905.782500", "140907.782500", "140909.782500", "140911.782500", "140913.782500", "140915.782500", "140917.782500", "140919.782500", "140921.782500", "140923.782500", "140925.782500", "140927.782500", "140929.782500", "140931.782500", "140933.782500", "140935.782500", "140937.782500", "140939.782500", "140941.782500", "140943.782500", "140945.782500", "140947.782500", "140949.782500", "140951.782500", "140953.782500", "140955.782500", "140957.782500", "140959.782500", "141001.782500", "141003.782500", "141005.782500", "141007.782500", "141009.782500", "141011.782500", "141013.782500", "141015.782500", "141017.782500", "141019.782500", "141021.782500", "141023.782500", "141025.782500", "141027.782500", "141029.782500", "141031.782500", "141033.782500", "141035.782500", "141037.782500", "141039.782500", "141041.782500", "141043.782500", "141045.782500", "141047.782500", "141049.782500", "141051.782500", "141053.782500", "141055.782500", "141057.782500", "141059.782500", "141101.782500", "141103.782500", "141105.782500", "141107.782500", "141109.782500", "141111.782500", "141113.782500", "141115.782500", "141117.782500", "141119.782500", "141121.782500", "141123.782500", "141125.782500", "141127.782500", "141129.782500", "141131.782500", "141133.782500", "141135.782500", "141137.782500", "141139.782500", "141141.782500", "141143.782500", "141145.782500", "141147.782500", "141149.782500", "141151.782500", "141153.782500", "141155.782500", "141157.782500", "141159.782500", "141201.782500", "141203.782500", "141205.782500", "141207.782500", "141209.782500", "141211.782500", "141213.782500", "141215.782500", "141217.782500", "141219.782500", "141221.782500", "141223.782500", "141225.782500", "141227.782500", "141229.782500", "141231.782500", "141233.782500", "141235.782500", "141237.782500", "141239.782500", "141241.782500", "141243.782500", "141245.782500", "141247.782500", "141249.782500", "141251.782500", "141253.782500", "141255.782500", "141257.782500", "141259.782500", "141301.782500", "141303.782500", "141305.782500", "141307.782500", "141309.782500", "141311.782500", "141313.782500", "141315.782500", "141317.782500", "141319.782500", "141321.782500", "141323.782500", "141325.782500", "141327.782500", "141329.782500", "141331.782500", "141333.782500", "141335.782500", "141337.782500", "141339.782500", "141341.782500", "141343.782500", "141345.782500", "141347.782500", "141349.782500", "141351.782500", "141353.782500", "141355.782500", "141357.782500", "141359.782500", "141401.782500", "141403.782500", "141405.782500", "141407.782500", "141409.782500", "141411.782500", "141413.782500", "141415.782500", "141417.782500", "141419.782500", "141421.782500", "141423.782500", "141425.782500", "141427.782500", "141429.782500", "141431.782500", "141433.782500", "141435.782500", "141437.782500", "141439.782500", "141441.782500", "141443.782500", "141445.782500", "141447.782500", "141449.782500", "141451.782500", "141453.782500", "141455.782500", "141457.782500", "141459.782500", "141501.782500", "141503.782500", "141505.782500", "141507.782500", "141509.782500", "141511.782500", "141513.782500", "141515.782500", "141517.782500", "141519.782500", "141521.782500"],
      "ContentTime": ["140654.117000", "140655.612000", "140657.611000", "140659.611000", "140701.611000", "140703.611000", "140705.611000", "140707.611000", "140709.612000", "140711.613000", "140713.613000", "140715.611000", "140717.611000", "140719.611000", "140721.611000", "140723.611000", "140725.612000", "140727.612000", "140729.612000", "140731.612000", "140733.611000", "140735.612000", "140737.611000", "140739.611000", "140741.611000", "140743.611000", "140745.612000", "140747.612000", "140749.611000", "140751.611000", "140753.611000", "140755.611000", "140757.612000", "140759.612000", "140801.611000", "140803.613000", "140805.612000", "140807.612000", "140809.612000", "140811.611000", "140813.611000", "140815.611000", "140817.612000", "140819.612000", "140821.612000", "140823.612000", "140825.611000", "140827.612000", "140829.612000", "140831.612000", "140833.611000", "140835.612000", "140837.612000", "140839.613000", "140841.612000", "140843.612000", "140845.611000", "140847.612000", "140849.611000", "140851.611000", "140853.611000", "140855.612000", "140857.613000", "140859.612000", "140901.611000", "140903.611000", "140905.612000", "140907.611000", "140909.611000", "140911.612000", "140913.613000", "140915.612000", "140917.611000", "140919.612000", "140921.611000", "140923.612000", "140925.612000", "140927.612000", "140929.613000", "140931.612000", "140933.613000", "140935.611000", "140937.612000", "140939.611000", "140941.612000", "140943.611000", "140945.611000", "140947.612000", "140949.612000", "140951.613000", "140953.612000", "140955.611000", "140957.611000", "140959.612000", "141001.611000", "141003.612000", "141005.612000", "141007.613000", "141009.611000", "141011.611000", "141013.611000", "141015.612000", "141017.612000", "141019.611000", "141021.611000", "141023.612000", "141025.613000", "141027.612000", "141029.612000", "141031.611000", "141033.611000", "141035.611000", "141037.612000", "141039.612000", "141041.612000", "141043.612000", "141045.612000", "141047.611000", "141049.611000", "141051.611000", "141053.612000", "141055.612000", "141057.613000", "141059.613000", "141101.613000", "141103.612000", "141105.611000", "141107.611000", "141109.612000", "141111.612000", "141113.612000", "141115.612000", "141117.613000", "141119.611000", "141121.612000", "141123.611000", "141125.612000", "141127.612000", "141129.611000", "141131.611000", "141133.613000", "141135.613000", "141137.612000", "141139.611000", "141141.612000", "141143.611000", "141145.611000", "141147.612000", "141149.613000", "141151.612000", "141153.613000", "141155.611000", "141157.612000", "141159.612000", "141201.625000", "141203.612000", "141205.611000", "141207.613000", "141209.613000", "141211.612000", "141213.611000", "141215.611000", "141217.611000", "141219.612000", "141221.611000", "141223.611000", "141225.613000", "141227.613000", "141229.611000", "141231.612000", "141233.612000", "141235.612000", "141237.612000", "141239.611000", "141241.611000", "141243.613000", "141245.613000", "141247.612000", "141249.612000", "141251.611000", "141253.612000", "141255.612000", "141257.611000", "141259.613000", "141301.612000", "141303.613000", "141305.612000", "141307.611000", "141309.611000", "141311.611000", "141313.611000", "141315.611000", "141317.612000", "141319.612000", "141321.613000", "141323.612000", "141325.612000", "141327.612000", "141329.612000", "141331.611000", "141333.612000", "141335.613000", "141337.613000", "141339.611000", "141341.611000", "141343.611000", "141345.611000", "141347.611000", "141349.612000", "141351.611000", "141353.613000", "141355.612000", "141357.611000", "141359.611000", "141401.612000", "141403.612000", "141405.612000", "141407.612000", "141409.612000", "141411.613000", "141413.612000", "141415.611000", "141417.611000", "141419.612000", "141421.612000", "141423.611000", "141425.612000", "141427.612000", "141429.613000", "141431.612000", "141433.612000", "141435.612000", "141437.612000", "141439.611000", "141441.612000", "141443.612000", "141445.612000", "141447.612000", "141449.611000", "141451.611000", "141453.612000", "141455.611000", "141457.612000", "141459.611000", "141501.611000", "141503.612000", "141505.613000", "141507.611000", "141509.612000", "141511.612000", "141513.612000", "141515.612000", "141517.612000", "141519.613000", "141521.613000", "141523.425000"],
      "InstanceCreationTime": ["140654.117000", "140655.612000", "140657.611000", "140659.611000", "140701.611000", "140703.611000", "140705.611000", "140707.611000", "140709.612000", "140711.613000", "140713.613000", "140715.611000", "140717.611000", "140719.611000", "140721.611000", "140723.611000", "140725.612000", "140727.612000", "140729.612000", "140731.612000", "140733.611000", "140735.612000", "140737.611000", "140739.611000", "140741.611000", "140743.611000", "140745.612000", "140747.612000", "140749.611000", "140751.611000", "140753.611000", "140755.611000", "140757.612000", "140759.612000", "140801.611000", "140803.613000", "140805.612000", "140807.612000", "140809.612000", "140811.611000", "140813.611000", "140815.611000", "140817.612000", "140819.612000", "140821.612000", "140823.612000", "140825.611000", "140827.612000", "140829.612000", "140831.612000", "140833.611000", "140835.612000", "140837.612000", "140839.613000", "140841.612000", "140843.612000", "140845.611000", "140847.612000", "140849.611000", "140851.611000", "140853.611000", "140855.612000", "140857.613000", "140859.612000", "140901.611000", "140903.611000", "140905.612000", "140907.611000", "140909.611000", "140911.612000", "140913.613000", "140915.612000", "140917.611000", "140919.612000", "140921.611000", "140923.612000", "140925.612000", "140927.612000", "140929.613000", "140931.612000", "140933.613000", "140935.611000", "140937.612000", "140939.611000", "140941.612000", "140943.611000", "140945.611000", "140947.612000", "140949.612000", "140951.613000", "140953.612000", "140955.611000", "140957.611000", "140959.612000", "141001.611000", "141003.612000", "141005.612000", "141007.613000", "141009.611000", "141011.611000", "141013.611000", "141015.612000", "141017.612000", "141019.611000", "141021.611000", "141023.612000", "141025.613000", "141027.612000", "141029.612000", "141031.611000", "141033.611000", "141035.611000", "141037.612000", "141039.612000", "141041.612000", "141043.612000", "141045.612000", "141047.611000", "141049.611000", "141051.611000", "141053.612000", "141055.612000", "141057.613000", "141059.613000", "141101.613000", "141103.612000", "141105.611000", "141107.611000", "141109.612000", "141111.612000", "141113.612000", "141115.612000", "141117.613000", "141119.611000", "141121.612000", "141123.611000", "141125.612000", "141127.612000", "141129.611000", "141131.611000", "141133.613000", "141135.613000", "141137.612000", "141139.611000", "141141.612000", "141143.611000", "141145.611000", "141147.612000", "141149.613000", "141151.612000", "141153.613000", "141155.611000", "141157.612000", "141159.612000", "141201.625000", "141203.612000", "141205.611000", "141207.613000", "141209.613000", "141211.612000", "141213.611000", "141215.611000", "141217.611000", "141219.612000", "141221.611000", "141223.611000", "141225.613000", "141227.613000", "141229.611000", "141231.612000", "141233.612000", "141235.612000", "141237.612000", "141239.611000", "141241.611000", "141243.613000", "141245.613000", "141247.612000", "141249.612000", "141251.611000", "141253.612000", "141255.612000", "141257.611000", "141259.613000", "141301.612000", "141303.613000", "141305.612000", "141307.611000", "141309.611000", "141311.611000", "141313.611000", "141315.611000", "141317.612000", "141319.612000", "141321.613000", "141323.612000", "141325.612000", "141327.612000", "141329.612000", "141331.611000", "141333.612000", "141335.613000", "141337.613000", "141339.611000", "141341.611000", "141343.611000", "141345.611000", "141347.611000", "141349.612000", "141351.611000", "141353.613000", "141355.612000", "141357.611000", "141359.611000", "141401.612000", "141403.612000", "141405.612000", "141407.612000", "141409.612000", "141411.613000", "141413.612000", "141415.611000", "141417.611000", "141419.612000", "141421.612000", "141423.611000", "141425.612000", "141427.612000", "141429.613000", "141431.612000", "141433.612000", "141435.612000", "141437.612000", "141439.611000", "141441.612000", "141443.612000", "141445.612000", "141447.612000", "141449.611000", "141451.611000", "141453.612000", "141455.611000", "141457.612000", "141459.611000", "141501.611000", "141503.612000", "141505.613000", "141507.611000", "141509.612000", "141511.612000", "141513.612000", "141515.612000", "141517.612000", "141519.613000", "141521.613000", "141523.425000"],
      "InstanceNumber": [1, 2, 3, 4, 5, 6, 7, 8, 9, 10, 11, 12, 13, 14, 15, 16, 17, 18, 19, 20, 21, 22, 23, 24, 25, 26, 27, 28, 29, 30, 31, 32, 33, 34, 35, 36, 37, 38, 39, 40, 41, 42, 43, 44, 45, 46, 47, 48, 49, 50, 51, 52, 53, 54, 55, 56, 57, 58, 59, 60, 61, 62, 63, 64, 65, 66, 67, 68, 69, 70, 71, 72, 73, 74, 75, 76, 77, 78, 79, 80, 81, 82, 83, 84, 85, 86, 87, 88, 89, 90, 91, 92, 93, 94, 95, 96, 97, 98, 99, 100, 101, 102, 103, 104, 105, 106, 107, 108, 109, 110, 111, 112, 113, 114, 115, 116, 117, 118, 119, 120, 121, 122, 123, 124, 125, 126, 127, 128, 129, 130, 131, 132, 133, 134, 135, 136, 137, 138, 139, 140, 141, 142, 143, 144, 145, 146, 147, 148, 149, 150, 151, 152, 153, 154, 155, 156, 157, 158, 159, 160, 161, 162, 163, 164, 165, 166, 167, 168, 169, 170, 171, 172, 173, 174, 175, 176, 177, 178, 179, 180, 181, 182, 183, 184, 185, 186, 187, 188, 189, 190, 191, 192, 193, 194, 195, 196, 197, 198, 199, 200, 201, 202, 203, 204, 205, 206, 207, 208, 209, 210, 211, 212, 213, 214, 215, 216, 217, 218, 219, 220, 221, 222, 223, 224, 225, 226, 227, 228, 229, 230, 231, 232, 233, 234, 235, 236, 237, 238, 239, 240, 241, 242, 243, 244, 245, 246, 247, 248, 249, 250, 251, 252, 253, 254, 255, 256],
      "LargestImagePixelValue": [3532, 3504, 3454, 3478, 3481, 3422, 3515, 3481, 3480, 3454, 3463, 3484, 3454, 3479, 3465, 3452, 3488, 3486, 3495, 3453, 3503, 3471, 3477, 3441, 3448, 3454, 3445, 3446, 3409, 3453, 3429, 3487, 3445, 3480, 3487, 3476, 3479, 3445, 3486, 3454, 3464, 3456, 3475, 3484, 3456, 3489, 3486, 3465, 3447, 3486, 3422, 3468, 3434, 3469, 3463, 3471, 3460, 3435, 3487, 3499, 3468, 3478, 3451, 3469, 3457, 3456, 3478, 3471, 3489, 3477, 3470, 3470, 3438, 3471, 3464, 3469, 3435, 3476, 3473, 3494, 3483, 3487, 3507, 3463, 3471, 3496, 3462, 3490, 3470, 3493, 3500, 3467, 3501, 3472, 3457, 3502, 3439, 3494, 3480, 3479, 3524, 3489, 3519, 3490, 3473, 3516, 3477, 3513, 3503, 3512, 3522, 3485, 3513, 3505, 3488, 3513, 3484, 3519, 3494, 3488, 3481, 3490, 3494, 3505, 3543, 3448, 3480, 3488, 3485, 3523, 3507, 3521, 3471, 3497, 3486, 3494, 3510, 3496, 3517, 3458, 3505, 3504, 3489, 3502, 3483, 3531, 3505, 3506, 3505, 3477, 3499, 3484, 3538, 3502, 3510, 3487, 3462, 3488, 3468, 3528, 3512, 3540, 3502, 3528, 3498, 3502, 3560, 3511, 3535, 3501, 3516, 3474, 3507, 3456, 3481, 3454, 3458, 3431, 3451, 3385, 3396, 3385, 3383, 3434, 3419, 3408, 3473, 3465, 3452, 3449, 3464, 3460, 3436, 3448, 3469, 3451, 3495, 3481, 3492, 3480, 3488, 3457, 3413, 3459, 3427, 3462, 3465, 3407, 3474, 3470, 3469, 3453, 3432, 3450, 3428, 3446, 3399, 3404, 3426, 3428, 3474, 3404, 3415, 3423, 3441, 3435, 3403, 3407, 3460, 3387, 3438, 3429, 3434, 3415, 3396, 3431, 3431, 3444, 3440, 3377, 3413, 3422, 3422, 3374, 3396, 3403, 3425, 3408, 3433, 3441, 3450, 3440, 3447, 3437, 3371, 3400],
      "WindowCenter": [801.0, 800.0, 800.0, 799.0, 798.0, 797.0, 799.0, 798.0, 799.0, 799.0, 800.0, 799.0, 798.0, 797.0, 797.0, 798.0, 798.0, 798.0, 798.0, 798.0, 798.0, 797.0, 798.0, 799.0, 800.0, 800.0, 801.0, 802.0, 802.0, 802.0, 803.0, 803.0, 800.0, 799.0, 798.0, 797.0, 797.0, 799.0, 800.0, 801.0, 801.0, 799.0, 798.0, 798.0, 798.0, 799.0, 800.0, 800.0, 799.0, 798.0, 799.0, 799.0, 800.0, 800.0, 800.0, 802.0, 803.0, 803.0, 802.0, 800.0, 799.0, 798.0, 799.0, 799.0, 799.0, 798.0, 798.0, 798.0, 798.0, 799.0, 799.0, 799.0, 800.0, 801.0, 803.0, 805.0, 806.0, 804.0, 802.0, 801.0, 799.0, 798.0, 798.0, 798.0, 797.0, 797.0, 796.0, 796.0, 797.0, 800.0, 802.0, 803.0, 802.0, 801.0, 800.0, 799.0, 799.0, 800.0, 799.0, 798.0, 798.0, 798.0, 798.0, 797.0, 799.0, 800.0, 800.0, 799.0, 798.0, 799.0, 799.0, 799.0, 800.0, 801.0, 800.0, 798.0, 798.0, 800.0, 800.0, 798.0, 797.0, 798.0, 799.0, 800.0, 800.0, 799.0, 799.0, 799.0, 800.0, 800.0, 800.0, 799.0, 799.0, 799.0, 798.0, 798.0, 799.0, 801.0, 802.0, 801.0, 800.0, 799.0, 799.0, 798.0, 797.0, 798.0, 798.0, 798.0, 798.0, 798.0, 797.0, 798.0, 798.0, 799.0, 799.0, 799.0, 799.0, 798.0, 798.0, 798.0, 798.0, 798.0, 797.0, 798.0, 797.0, 796.0, 797.0, 798.0, 798.0, 798.0, 799.0, 799.0, 799.0, 798.0, 798.0, 798.0, 801.0, 802.0, 801.0, 799.0, 798.0, 797.0, 798.0, 800.0, 801.0, 798.0, 797.0, 795.0, 794.0, 793.0, 794.0, 796.0, 796.0, 796.0, 796.0, 796.0, 797.0, 797.0, 797.0, 796.0, 797.0, 798.0, 799.0, 800.0, 799.0, 798.0, 797.0, 796.0, 798.0, 797.0, 796.0, 798.0, 801.0, 801.0, 799.0, 798.0, 797.0, 796.0, 795.0, 796.0, 797.0, 797.0, 798.0, 797.0, 796.0, 795.0, 795.0, 795.0, 796.0, 796.0, 797.0, 796.0, 797.0, 799.0, 800.0, 799.0, 797.0, 796.0, 797.0, 797.0, 797.0, 796.0, 796.0, 795.0, 795.0, 796.0, 796.0, 796.0, 795.0, 795.0, 796.0, 796.0, 797.0, 796.0, 796.0, 796.0],
      "WindowWidth": [1713.0, 1711.0, 1711.0, 1708.0, 1705.0, 1703.0, 1707.0, 1706.0, 1708.0, 1708.0, 1710.0, 1709.0, 1705.0, 1703.0, 1703.0, 1706.0, 1707.0, 1706.0, 1706.0, 1707.0, 1707.0, 1704.0, 1706.0, 1707.0, 1710.0, 1711.0, 1714.0, 1717.0, 1716.0, 1717.0, 1719.0, 1717.0, 1711.0, 1708.0, 1705.0, 1703.0, 1704.0, 1707.0, 1711.0, 1713.0, 1712.0, 1708.0, 1706.0, 1705.0, 1705.0, 1708.0, 1710.0, 1709.0, 1707.0, 1706.0, 1707.0, 1709.0, 1711.0, 1709.0, 1711.0, 1716.0, 1719.0, 1718.0, 1714.0, 1711.0, 1707.0, 1706.0, 1708.0, 1708.0, 1707.0, 1706.0, 1704.0, 1705.0, 1706.0, 1707.0, 1707.0, 1707.0, 1709.0, 1712.0, 1718.0, 1724.0, 1726.0, 1721.0, 1716.0, 1711.0, 1707.0, 1706.0, 1706.0, 1704.0, 1704.0, 1702.0, 1701.0, 1701.0, 1704.0, 1710.0, 1715.0, 1718.0, 1716.0, 1712.0, 1710.0, 1709.0, 1708.0, 1709.0, 1708.0, 1706.0, 1705.0, 1705.0, 1705.0, 1704.0, 1707.0, 1711.0, 1711.0, 1709.0, 1706.0, 1707.0, 1707.0, 1707.0, 1712.0, 1713.0, 1710.0, 1706.0, 1705.0, 1709.0, 1709.0, 1704.0, 1702.0, 1705.0, 1708.0, 1710.0, 1710.0, 1707.0, 1707.0, 1707.0, 1710.0, 1709.0, 1709.0, 1707.0, 1707.0, 1707.0, 1706.0, 1706.0, 1708.0, 1714.0, 1717.0, 1713.0, 1710.0, 1707.0, 1707.0, 1705.0, 1703.0, 1705.0, 1705.0, 1705.0, 1704.0, 1704.0, 1704.0, 1704.0, 1706.0, 1708.0, 1708.0, 1707.0, 1706.0, 1706.0, 1704.0, 1704.0, 1705.0, 1706.0, 1703.0, 1704.0, 1702.0, 1700.0, 1702.0, 1704.0, 1705.0, 1704.0, 1707.0, 1708.0, 1707.0, 1704.0, 1704.0, 1706.0, 1711.0, 1714.0, 1712.0, 1707.0, 1704.0, 1702.0, 1706.0, 1711.0, 1711.0, 1705.0, 1702.0, 1698.0, 1695.0, 1693.0, 1695.0, 1698.0, 1700.0, 1699.0, 1700.0, 1701.0, 1702.0, 1701.0, 1701.0, 1701.0, 1702.0, 1706.0, 1706.0, 1709.0, 1707.0, 1706.0, 1703.0, 1700.0, 1704.0, 1702.0, 1700.0, 1706.0, 1713.0, 1712.0, 1706.0, 1704.0, 1701.0, 1698.0, 1698.0, 1699.0, 1701.0, 1702.0, 1705.0, 1702.0, 1698.0, 1697.0, 1696.0, 1697.0, 1700.0, 1700.0, 1701.0, 1700.0, 1703.0, 1709.0, 1709.0, 1707.0, 1702.0, 1700.0, 1702.0, 1701.0, 1702.0, 1700.0, 1699.0, 1697.0, 1697.0, 1698.0, 1700.0, 1699.0, 1697.0, 1697.0, 1699.0, 1701.0, 1703.0, 1701.0, 1699.0, 1699.0]
    },
    "slices": {}
  }
}