{
  "AcquisitionMatrixPE": 100,
  "AcquisitionNumber": 1,
  "AcquisitionTime": "13:15:49.505000",
  "BandwidthPerPixelPhaseEncode": 18.519,
  "BaseResolution": 100,
  "BodyPartExamined": "BRAIN",
  "ConsistencyInfo": "N4_VE11C_LATEST_20160120",
  "ConversionSoftware": "dcm2niix",
  "ConversionSoftwareVersion": "v1.0.20180622 GCC4.9.2",
  "DerivedVendorReportedEchoSpacing": 0.000539986,
  "DeviceSerialNumber": "166078",
  "DwellTime": 2.1e-06,
  "EchoTime": 0.034,
  "EchoTrainLength": 100,
  "EffectiveEchoSpacing": 0.000539986,
  "FlipAngle": 90,
  "ImageOrientationPatientDICOM": [0.998376, -0.0339378, 0.0457578, 0.0383538, 0.994312, -0.0993649],
  "ImageType": [
    "ORIGINAL",
    "PRIMARY",
    "M",
    "ND",
    "MOSAIC"
],
  "InPlanePhaseEncodingDirectionDICOM": "COL",
  "InstitutionAddress": "Street_StreetNo_Bei_Jing_District_CN_ZIP",
  "InstitutionName": "BeiJing_Normal_University",
  "InstitutionalDepartmentName": "Department",
  "MRAcquisitionType": "2D",
  "MagneticFieldStrength": 3,
  "Manufacturer": "Siemens",
  "ManufacturersModelName": "Prisma",
  "Modality": "MR",
  "MultibandAccelerationFactor": 3,
  "PartialFourier": 1,
  "PatientPosition": "HFS",
  "PercentPhaseFOV": 100,
  "PhaseEncodingDirection": "j-",
  "PhaseEncodingSteps": 100,
  "PhaseResolution": 1,
  "PixelBandwidth": 2380,
  "ProcedureStepDescription": "BNU_P2018_64CH_Zhen.ZongLei",
  "ProtocolName": "bold_100x100_s3_2x2x2_static_256",
  "PulseSequenceDetails": "%SiemensSeq%_ep2d_bold",
  "ReceiveCoilActiveElements": "HC1-7;NC1",
  "ReceiveCoilName": "HeadNeck_64",
  "ReconMatrixPE": 100,
  "RepetitionTime": 2,
  "SAR": 0.0737135,
  "ScanOptions": "FS",
  "ScanningSequence": "EP",
  "SequenceName": "_epfid2d1_100",
  "SequenceVariant": "SK",
  "SeriesDescription": "bold_100x100_s3_2x2x2_static_256",
  "SeriesNumber": 4,
  "ShimSetting": [-5441, -11486, -1282, 282, 60, -141, -174, 68],
  "SliceThickness": 2,
  "SliceTiming": [1.485, 0, 0.99, 0.0825, 1.0725, 0.165, 1.155, 0.2475, 1.2375, 0.33, 1.32, 0.4125, 1.4025, 0.5775, 1.5675, 0.66, 1.65, 0.7425, 1.7325, 0.825, 1.815, 0.9075, 1.8975, 0.495, 1.485, 0, 0.99, 0.0825, 1.0725, 0.165, 1.155, 0.2475, 1.2375, 0.33, 1.32, 0.4125, 1.4025, 0.5775, 1.5675, 0.66, 1.65, 0.7425, 1.7325, 0.825, 1.815, 0.9075, 1.8975, 0.495, 1.485, 0, 0.99, 0.0825, 1.0725, 0.165, 1.155, 0.2475, 1.2375, 0.33, 1.32, 0.4125, 1.4025, 0.5775, 1.5675, 0.66, 1.65, 0.7425, 1.7325, 0.825, 1.815, 0.9075, 1.8975, 0.495],
  "SoftwareVersions": "syngo_MR_E11",
  "SpacingBetweenSlices": 2,
  "StationName": "AWP166078",
  "TaskName": "naturalvision",
  "TotalReadoutTime": 0.0534586,
  "TxRefAmp": 229.058,
  "dcmmeta_affine": [
    [-1.9967517852783203, 0.07670750468969345, 0.0842505618929863, 95.02921295166016],
    [0.06787559390068054, 1.9886232614517212, -0.20191700756549835, -90.43597412109375],
    [0.09151559323072433, 0.19872979819774628, 1.9879968166351318, -75.90318298339844],
    [0.0, 0.0, 0.0, 1.0]
],
  "dcmmeta_reorient_transform": [
    [0.0, -1.0, 0.0, 99.0],
    [1.0, 0.0, 0.0, 0.0],
    [0.0, 0.0, 1.0, 0.0],
    [0.0, 0.0, 0.0, 1.0]
],
  "dcmmeta_shape": [100, 100, 72, 256],
  "dcmmeta_slice_dim": 2,
  "dcmmeta_version": 0.6,
  "global": {
    "const": {
      "AcquisitionMatrix": [100, 0, 0, 100],
      "AngioFlag": "N",
      "BitsAllocated": 16,
      "BitsStored": 12,
      "BodyPartExamined": "BRAIN",
      "Columns": 900,
      "EchoNumbers": 1,
      "EchoTime": 34.0,
      "EchoTrainLength": 100,
      "FlipAngle": 90.0,
      "HighBit": 11,
      "ImageOrientationPatient": [0.99837590619063, -0.0339377951438, 0.04575779713695, 0.03835375329078, 0.99431162421185, -0.0993649010753],
      "ImagePositionPatient": [-932.00698051772, -874.73678719522, -13.343248026532],
      "ImageType": [
        "ORIGINAL",
        "PRIMARY",
        "M",
        "ND",
        "MOSAIC"
],
      "ImagedNucleus": "1H",
      "ImagingFrequency": 123.257754,
      "InPlanePhaseEncodingDirection": "COL",
      "MRAcquisitionType": "2D",
      "MagneticFieldStrength": 3.0,
      "Manufacturer": "SIEMENS",
      "ManufacturerModelName": "Prisma",
      "Modality": "MR",
      "NumberOfAverages": 1.0,
      "NumberOfPhaseEncodingSteps": 100,
      "PercentPhaseFieldOfView": 100.0,
      "PercentSampling": 100.0,
      "PerformedProcedureStepStartTime": "130256.437000",
      "PhotometricInterpretation": "MONOCHROME2",
      "PixelBandwidth": 2380.0,
      "PixelRepresentation": 0,
      "PixelSpacing": [2.0, 2.0],
      "ProtocolName": "bold_100x100_s3_2x2x2_static_256",
      "RepetitionTime": 2000.0,
      "Rows": 900,
      "SAR": 0.07371350160457,
      "SamplesPerPixel": 1,
      "ScanOptions": "FS",
      "ScanningSequence": "EP",
      "SequenceName": "*epfid2d1_100",
      "SequenceVariant": "SK",
      "SeriesDescription": "bold_100x100_s3_2x2x2_static_256",
      "SeriesNumber": 4,
      "SeriesTime": "131552.077000",
      "SliceLocation": -62.314228191848,
      "SliceThickness": 2.0,
      "SmallestImagePixelValue": 0,
      "SoftwareVersions": "syngo MR E11",
      "SpacingBetweenSlices": 1.9999999390425,
      "SpecificCharacterSet": "ISO_IR 100",
      "StudyID": "1",
      "StudyTime": "130256.355000",
      "TransmitCoilName": "Body",
      "VariableFlipAngleFlag": "N",
      "WindowCenterWidthExplanation": "Algo1",
      "dBdt": 0.0},
    "slices": {}
  },
  "time": {
    "samples": {
      "AcquisitionNumber": [1, 2, 3, 4, 5, 6, 7, 8, 9, 10, 11, 12, 13, 14, 15, 16, 17, 18, 19, 20, 21, 22, 23, 24, 25, 26, 27, 28, 29, 30, 31, 32, 33, 34, 35, 36, 37, 38, 39, 40, 41, 42, 43, 44, 45, 46, 47, 48, 49, 50, 51, 52, 53, 54, 55, 56, 57, 58, 59, 60, 61, 62, 63, 64, 65, 66, 67, 68, 69, 70, 71, 72, 73, 74, 75, 76, 77, 78, 79, 80, 81, 82, 83, 84, 85, 86, 87, 88, 89, 90, 91, 92, 93, 94, 95, 96, 97, 98, 99, 100, 101, 102, 103, 104, 105, 106, 107, 108, 109, 110, 111, 112, 113, 114, 115, 116, 117, 118, 119, 120, 121, 122, 123, 124, 125, 126, 127, 128, 129, 130, 131, 132, 133, 134, 135, 136, 137, 138, 139, 140, 141, 142, 143, 144, 145, 146, 147, 148, 149, 150, 151, 152, 153, 154, 155, 156, 157, 158, 159, 160, 161, 162, 163, 164, 165, 166, 167, 168, 169, 170, 171, 172, 173, 174, 175, 176, 177, 178, 179, 180, 181, 182, 183, 184, 185, 186, 187, 188, 189, 190, 191, 192, 193, 194, 195, 196, 197, 198, 199, 200, 201, 202, 203, 204, 205, 206, 207, 208, 209, 210, 211, 212, 213, 214, 215, 216, 217, 218, 219, 220, 221, 222, 223, 224, 225, 226, 227, 228, 229, 230, 231, 232, 233, 234, 235, 236, 237, 238, 239, 240, 241, 242, 243, 244, 245, 246, 247, 248, 249, 250, 251, 252, 253, 254, 255, 256],
      "AcquisitionTime": ["131549.505000", "131551.505000", "131553.505000", "131555.505000", "131557.505000", "131559.505000", "131601.505000", "131603.505000", "131605.505000", "131607.505000", "131609.505000", "131611.505000", "131613.505000", "131615.505000", "131617.505000", "131619.505000", "131621.505000", "131623.505000", "131625.505000", "131627.505000", "131629.505000", "131631.505000", "131633.505000", "131635.505000", "131637.505000", "131639.505000", "131641.505000", "131643.505000", "131645.505000", "131647.505000", "131649.505000", "131651.505000", "131653.505000", "131655.505000", "131657.505000", "131659.505000", "131701.505000", "131703.505000", "131705.505000", "131707.505000", "131709.505000", "131711.505000", "131713.505000", "131715.505000", "131717.505000", "131719.505000", "131721.505000", "131723.505000", "131725.505000", "131727.505000", "131729.505000", "131731.505000", "131733.505000", "131735.505000", "131737.505000", "131739.505000", "131741.505000", "131743.505000", "131745.505000", "131747.505000", "131749.505000", "131751.505000", "131753.505000", "131755.505000", "131757.505000", "131759.505000", "131801.505000", "131803.505000", "131805.505000", "131807.505000", "131809.505000", "131811.505000", "131813.505000", "131815.505000", "131817.505000", "131819.505000", "131821.505000", "131823.505000", "131825.505000", "131827.505000", "131829.505000", "131831.505000", "131833.505000", "131835.505000", "131837.505000", "131839.505000", "131841.505000", "131843.505000", "131845.505000", "131847.505000", "131849.505000", "131851.505000", "131853.505000", "131855.505000", "131857.505000", "131859.505000", "131901.505000", "131903.505000", "131905.505000", "131907.505000", "131909.505000", "131911.505000", "131913.505000", "131915.505000", "131917.505000", "131919.505000", "131921.505000", "131923.505000", "131925.505000", "131927.505000", "131929.505000", "131931.505000", "131933.505000", "131935.505000", "131937.505000", "131939.505000", "131941.505000", "131943.505000", "131945.505000", "131947.505000", "131949.505000", "131951.505000", "131953.505000", "131955.505000", "131957.505000", "131959.505000", "132001.505000", "132003.505000", "132005.505000", "132007.505000", "132009.505000", "132011.505000", "132013.505000", "132015.505000", "132017.505000", "132019.505000", "132021.505000", "132023.505000", "132025.505000", "132027.505000", "132029.505000", "132031.505000", "132033.505000", "132035.505000", "132037.505000", "132039.505000", "132041.505000", "132043.505000", "132045.505000", "132047.505000", "132049.505000", "132051.505000", "132053.505000", "132055.505000", "132057.505000", "132059.505000", "132101.505000", "132103.505000", "132105.505000", "132107.505000", "132109.505000", "132111.505000", "132113.505000", "132115.505000", "132117.505000", "132119.505000", "132121.505000", "132123.505000", "132125.505000", "132127.505000", "132129.505000", "132131.505000", "132133.505000", "132135.505000", "132137.505000", "132139.505000", "132141.505000", "132143.505000", "132145.505000", "132147.505000", "132149.505000", "132151.505000", "132153.505000", "132155.505000", "132157.505000", "132159.505000", "132201.505000", "132203.505000", "132205.505000", "132207.505000", "132209.505000", "132211.505000", "132213.505000", "132215.505000", "132217.505000", "132219.505000", "132221.505000", "132223.505000", "132225.505000", "132227.505000", "132229.505000", "132231.505000", "132233.505000", "132235.505000", "132237.505000", "132239.505000", "132241.505000", "132243.505000", "132245.505000", "132247.505000", "132249.505000", "132251.505000", "132253.505000", "132255.505000", "132257.505000", "132259.505000", "132301.505000", "132303.505000", "132305.505000", "132307.505000", "132309.505000", "132311.505000", "132313.505000", "132315.505000", "132317.505000", "132319.505000", "132321.505000", "132323.505000", "132325.505000", "132327.505000", "132329.505000", "132331.505000", "132333.505000", "132335.505000", "132337.505000", "132339.505000", "132341.505000", "132343.505000", "132345.505000", "132347.505000", "132349.505000", "132351.505000", "132353.505000", "132355.505000", "132357.505000", "132359.505000", "132401.505000", "132403.505000", "132405.505000", "132407.505000", "132409.505000", "132411.505000", "132413.505000", "132415.505000", "132417.505000", "132419.505000"],
      "ContentTime": ["131552.081000", "131553.557000", "131555.556000", "131558.056000", "131600.056000", "131602.056000", "131604.056000", "131606.056000", "131608.056000", "131609.556000", "131612.056000", "131614.056000", "131616.057000", "131618.056000", "131620.057000", "131622.056000", "131623.558000", "131626.055000", "131627.556000", "131629.557000", "131631.556000", "131634.057000", "131636.056000", "131638.057000", "131639.557000", "131642.056000", "131644.056000", "131645.556000", "131648.077000", "131649.556000", "131652.056000", "131654.057000", "131656.056000", "131658.057000", "131700.055000", "131701.556000", "131703.557000", "131705.556000", "131708.057000", "131709.557000", "131712.056000", "131713.557000", "131715.556000", "131718.056000", "131719.556000", "131722.057000", "131724.057000", "131725.556000", "131728.056000", "131729.557000", "131732.057000", "131733.556000", "131736.056000", "131737.557000", "131739.557000", "131741.557000", "131743.556000", "131746.056000", "131747.556000", "131750.056000", "131751.556000", "131754.055000", "131755.556000", "131757.556000", "131800.056000", "131801.556000", "131803.557000", "131806.056000", "131807.556000", "131809.556000", "131811.555000", "131814.056000", "131816.057000", "131818.056000", "131820.057000", "131822.056000", "131824.057000", "131826.056000", "131828.055000", "131829.555000", "131832.056000", "131834.057000", "131836.057000", "131838.056000", "131840.057000", "131842.057000", "131844.057000", "131845.555000", "131848.056000", "131850.056000", "131851.556000", "131854.057000", "131855.556000", "131857.557000", "131859.556000", "131902.056000", "131904.055000", "131906.056000", "131907.556000", "131910.057000", "131912.057000", "131913.556000", "131916.057000", "131918.057000", "131919.556000", "131922.055000", "131923.557000", "131926.057000", "131928.057000", "131930.056000", "131932.057000", "131934.057000", "131936.056000", "131937.556000", "131939.556000", "131942.057000", "131943.556000", "131946.056000", "131948.057000", "131950.057000", "131951.557000", "131953.557000", "131955.555000", "131957.556000", "131959.557000", "132002.057000", "132003.556000", "132005.556000", "132008.056000", "132010.057000", "132012.057000", "132013.555000", "132015.557000", "132017.556000", "132020.056000", "132021.556000", "132024.057000", "132025.556000", "132027.556000", "132030.056000", "132031.556000", "132033.557000", "132036.057000", "132038.057000", "132040.056000", "132042.057000", "132044.056000", "132045.556000", "132048.056000", "132050.057000", "132052.056000", "132053.556000", "132055.556000", "132057.557000", "132100.056000", "132101.556000", "132103.556000", "132105.555000", "132107.556000", "132110.057000", "132112.056000", "132113.556000", "132116.056000", "132117.557000", "132120.057000", "132122.057000", "132123.555000", "132126.057000", "132127.556000", "132130.057000", "132132.057000", "132134.056000", "132136.057000", "132137.557000", "132140.056000", "132142.056000", "132144.070000", "132146.057000", "132148.056000", "132149.557000", "132152.056000", "132154.057000", "132156.057000", "132157.556000", "132159.556000", "132202.057000", "132204.057000", "132205.557000", "132207.557000", "132210.056000", "132212.057000", "132214.056000", "132215.555000", "132217.556000", "132220.057000", "132222.056000", "132223.556000", "132226.057000", "132228.057000", "132229.556000", "132232.056000", "132233.555000", "132236.057000", "132238.056000", "132240.056000", "132241.557000", "132244.056000", "132246.056000", "132248.056000", "132250.055000", "132252.055000", "132254.056000", "132255.556000", "132258.056000", "132300.057000", "132302.057000", "132303.557000", "132305.557000", "132307.556000", "132310.056000", "132312.057000", "132314.056000", "132316.056000", "132318.056000", "132320.057000", "132322.057000", "132324.057000", "132326.056000", "132328.057000", "132329.557000", "132332.056000", "132334.056000", "132336.057000", "132337.556000", "132339.556000", "132341.556000", "132344.057000", "132345.556000", "132347.557000", "132350.056000", "132351.556000", "132354.057000", "132356.056000", "132358.057000", "132400.056000", "132401.555000", "132403.556000", "132406.056000", "132407.557000", "132409.556000", "132412.056000", "132413.556000", "132416.056000", "132417.555000", "132419.557000", "132421.495000"],
      "InstanceCreationTime": ["131552.081000", "131553.557000", "131555.556000", "131558.056000", "131600.056000", "131602.056000", "131604.056000", "131606.056000", "131608.056000", "131609.556000", "131612.056000", "131614.056000", "131616.057000", "131618.056000", "131620.057000", "131622.056000", "131623.558000", "131626.055000", "131627.556000", "131629.557000", "131631.556000", "131634.057000", "131636.056000", "131638.057000", "131639.557000", "131642.056000", "131644.056000", "131645.556000", "131648.077000", "131649.556000", "131652.056000", "131654.057000", "131656.056000", "131658.057000", "131700.055000", "131701.556000", "131703.557000", "131705.556000", "131708.057000", "131709.557000", "131712.056000", "131713.557000", "131715.556000", "131718.056000", "131719.556000", "131722.057000", "131724.057000", "131725.556000", "131728.056000", "131729.557000", "131732.057000", "131733.556000", "131736.056000", "131737.557000", "131739.557000", "131741.557000", "131743.556000", "131746.056000", "131747.556000", "131750.056000", "131751.556000", "131754.055000", "131755.556000", "131757.556000", "131800.056000", "131801.556000", "131803.557000", "131806.056000", "131807.556000", "131809.556000", "131811.555000", "131814.056000", "131816.057000", "131818.056000", "131820.057000", "131822.056000", "131824.057000", "131826.056000", "131828.055000", "131829.555000", "131832.056000", "131834.057000", "131836.057000", "131838.056000", "131840.057000", "131842.057000", "131844.057000", "131845.555000", "131848.056000", "131850.056000", "131851.556000", "131854.057000", "131855.556000", "131857.557000", "131859.556000", "131902.056000", "131904.055000", "131906.056000", "131907.556000", "131910.057000", "131912.057000", "131913.556000", "131916.057000", "131918.057000", "131919.556000", "131922.055000", "131923.557000", "131926.057000", "131928.057000", "131930.056000", "131932.057000", "131934.057000", "131936.056000", "131937.556000", "131939.556000", "131942.057000", "131943.556000", "131946.056000", "131948.057000", "131950.057000", "131951.557000", "131953.557000", "131955.555000", "131957.556000", "131959.557000", "132002.057000", "132003.556000", "132005.556000", "132008.056000", "132010.057000", "132012.057000", "132013.555000", "132015.557000", "132017.556000", "132020.056000", "132021.556000", "132024.057000", "132025.556000", "132027.556000", "132030.056000", "132031.556000", "132033.557000", "132036.057000", "132038.057000", "132040.056000", "132042.057000", "132044.056000", "132045.556000", "132048.056000", "132050.057000", "132052.056000", "132053.556000", "132055.556000", "132057.557000", "132100.056000", "132101.556000", "132103.556000", "132105.555000", "132107.556000", "132110.057000", "132112.056000", "132113.556000", "132116.056000", "132117.557000", "132120.057000", "132122.057000", "132123.555000", "132126.057000", "132127.556000", "132130.057000", "132132.057000", "132134.056000", "132136.057000", "132137.557000", "132140.056000", "132142.056000", "132144.070000", "132146.057000", "132148.056000", "132149.557000", "132152.056000", "132154.057000", "132156.057000", "132157.556000", "132159.556000", "132202.057000", "132204.057000", "132205.557000", "132207.557000", "132210.056000", "132212.057000", "132214.056000", "132215.555000", "132217.556000", "132220.057000", "132222.056000", "132223.556000", "132226.057000", "132228.057000", "132229.556000", "132232.056000", "132233.555000", "132236.057000", "132238.056000", "132240.056000", "132241.557000", "132244.056000", "132246.056000", "132248.056000", "132250.055000", "132252.055000", "132254.056000", "132255.556000", "132258.056000", "132300.057000", "132302.057000", "132303.557000", "132305.557000", "132307.556000", "132310.056000", "132312.057000", "132314.056000", "132316.056000", "132318.056000", "132320.057000", "132322.057000", "132324.057000", "132326.056000", "132328.057000", "132329.557000", "132332.056000", "132334.056000", "132336.057000", "132337.556000", "132339.556000", "132341.556000", "132344.057000", "132345.556000", "132347.557000", "132350.056000", "132351.556000", "132354.057000", "132356.056000", "132358.057000", "132400.056000", "132401.555000", "132403.556000", "132406.056000", "132407.557000", "132409.556000", "132412.056000", "132413.556000", "132416.056000", "132417.555000", "132419.557000", "132421.495000"],
      "InstanceNumber": [1, 2, 3, 4, 5, 6, 7, 8, 9, 10, 11, 12, 13, 14, 15, 16, 17, 18, 19, 20, 21, 22, 23, 24, 25, 26, 27, 28, 29, 30, 31, 32, 33, 34, 35, 36, 37, 38, 39, 40, 41, 42, 43, 44, 45, 46, 47, 48, 49, 50, 51, 52, 53, 54, 55, 56, 57, 58, 59, 60, 61, 62, 63, 64, 65, 66, 67, 68, 69, 70, 71, 72, 73, 74, 75, 76, 77, 78, 79, 80, 81, 82, 83, 84, 85, 86, 87, 88, 89, 90, 91, 92, 93, 94, 95, 96, 97, 98, 99, 100, 101, 102, 103, 104, 105, 106, 107, 108, 109, 110, 111, 112, 113, 114, 115, 116, 117, 118, 119, 120, 121, 122, 123, 124, 125, 126, 127, 128, 129, 130, 131, 132, 133, 134, 135, 136, 137, 138, 139, 140, 141, 142, 143, 144, 145, 146, 147, 148, 149, 150, 151, 152, 153, 154, 155, 156, 157, 158, 159, 160, 161, 162, 163, 164, 165, 166, 167, 168, 169, 170, 171, 172, 173, 174, 175, 176, 177, 178, 179, 180, 181, 182, 183, 184, 185, 186, 187, 188, 189, 190, 191, 192, 193, 194, 195, 196, 197, 198, 199, 200, 201, 202, 203, 204, 205, 206, 207, 208, 209, 210, 211, 212, 213, 214, 215, 216, 217, 218, 219, 220, 221, 222, 223, 224, 225, 226, 227, 228, 229, 230, 231, 232, 233, 234, 235, 236, 237, 238, 239, 240, 241, 242, 243, 244, 245, 246, 247, 248, 249, 250, 251, 252, 253, 254, 255, 256],
      "LargestImagePixelValue": [3687, 3635, 3535, 3537, 3529, 3513, 3581, 3500, 3567, 3537, 3553, 3545, 3536, 3537, 3510, 3496, 3551, 3555, 3564, 3591, 3520, 3553, 3574, 3506, 3552, 3481, 3553, 3503, 3535, 3575, 3537, 3533, 3499, 3466, 3547, 3491, 3443, 3515, 3451, 3405, 3445, 3384, 3481, 3416, 3424, 3453, 3434, 3498, 3410, 3546, 3526, 3504, 3539, 3426, 3434, 3457, 3407, 3507, 3432, 3408, 3364, 3347, 3401, 3327, 3399, 3423, 3383, 3458, 3349, 3396, 3378, 3333, 3430, 3374, 3374, 3360, 3356, 3394, 3344, 3340, 3433, 3348, 3431, 3361, 3290, 3388, 3371, 3348, 3329, 3333, 3432, 3362, 3337, 3347, 3345, 3393, 3382, 3337, 3412, 3320, 3404, 3303, 3402, 3414, 3339, 3406, 3382, 3406, 3326, 3323, 3396, 3360, 3424, 3377, 3429, 3335, 3447, 3374, 3397, 3380, 3434, 3414, 3372, 3421, 3343, 3414, 3379, 3333, 3332, 3376, 3332, 3303, 3333, 3366, 3353, 3376, 3362, 3309, 3326, 3356, 3361, 3308, 3356, 3323, 3324, 3410, 3309, 3406, 3321, 3443, 3365, 3398, 3362, 3320, 3422, 3366, 3359, 3332, 3401, 3400, 3358, 3390, 3346, 3382, 3369, 3386, 3374, 3360, 3334, 3335, 3372, 3377, 3359, 3382, 3362, 3414, 3386, 3366, 3378, 3399, 3393, 3354, 3325, 3361, 3358, 3351, 3334, 3379, 3345, 3346, 3308, 3329, 3342, 3363, 3389, 3378, 3362, 3386, 3386, 3396, 3389, 3358, 3396, 3373, 3399, 3372, 3372, 3385, 3383, 3352, 3389, 3399, 3417, 3374, 3400, 3357, 3377, 3336, 3367, 3389, 3361, 3395, 3348, 3328, 3363, 3353, 3409, 3384, 3377, 3352, 3382, 3370, 3398, 3409, 3374, 3406, 3394, 3380, 3354, 3350, 3325, 3330, 3312, 3300, 3317, 3324, 3409, 3351, 3351, 3349, 3324, 3357, 3322, 3388, 3358, 3350],
      "WindowCenter": [800.0, 799.0, 799.0, 799.0, 799.0, 798.0, 798.0, 797.0, 799.0, 799.0, 800.0, 800.0, 800.0, 800.0, 800.0, 799.0, 799.0, 799.0, 799.0, 799.0, 799.0, 799.0, 799.0, 798.0, 799.0, 799.0, 800.0, 800.0, 800.0, 800.0, 800.0, 800.0, 800.0, 800.0, 801.0, 800.0, 799.0, 800.0, 801.0, 801.0, 802.0, 800.0, 800.0, 801.0, 801.0, 800.0, 798.0, 797.0, 796.0, 797.0, 798.0, 798.0, 799.0, 799.0, 800.0, 800.0, 798.0, 798.0, 799.0, 800.0, 801.0, 801.0, 799.0, 797.0, 798.0, 799.0, 799.0, 799.0, 798.0, 800.0, 801.0, 800.0, 799.0, 798.0, 799.0, 799.0, 799.0, 798.0, 797.0, 798.0, 799.0, 798.0, 798.0, 797.0, 797.0, 799.0, 800.0, 799.0, 798.0, 798.0, 798.0, 799.0, 800.0, 800.0, 799.0, 798.0, 798.0, 797.0, 798.0, 798.0, 798.0, 797.0, 797.0, 797.0, 796.0, 797.0, 798.0, 797.0, 796.0, 795.0, 797.0, 797.0, 799.0, 798.0, 797.0, 797.0, 799.0, 799.0, 799.0, 798.0, 799.0, 799.0, 800.0, 800.0, 800.0, 801.0, 801.0, 801.0, 801.0, 800.0, 801.0, 801.0, 800.0, 799.0, 799.0, 800.0, 801.0, 800.0, 800.0, 800.0, 799.0, 799.0, 801.0, 801.0, 799.0, 797.0, 796.0, 797.0, 796.0, 797.0, 798.0, 800.0, 799.0, 797.0, 798.0, 800.0, 800.0, 798.0, 797.0, 796.0, 796.0, 798.0, 799.0, 799.0, 798.0, 798.0, 799.0, 800.0, 800.0, 799.0, 798.0, 797.0, 798.0, 799.0, 799.0, 799.0, 798.0, 797.0, 798.0, 797.0, 799.0, 800.0, 801.0, 799.0, 798.0, 798.0, 797.0, 797.0, 796.0, 798.0, 799.0, 799.0, 798.0, 797.0, 797.0, 796.0, 798.0, 798.0, 797.0, 797.0, 797.0, 798.0, 797.0, 796.0, 795.0, 795.0, 797.0, 799.0, 800.0, 799.0, 798.0, 798.0, 798.0, 799.0, 800.0, 799.0, 799.0, 798.0, 798.0, 797.0, 797.0, 799.0, 800.0, 800.0, 799.0, 798.0, 798.0, 798.0, 798.0, 797.0, 797.0, 797.0, 797.0, 798.0, 798.0, 799.0, 799.0, 799.0, 800.0, 800.0, 801.0, 801.0, 801.0, 801.0, 800.0, 798.0, 797.0, 795.0, 794.0, 795.0, 797.0, 797.0, 796.0, 796.0, 795.0, 796.0],
      "WindowWidth": [1714.0, 1711.0, 1711.0, 1712.0, 1710.0, 1707.0, 1707.0, 1706.0, 1709.0, 1711.0, 1713.0, 1714.0, 1714.0, 1713.0, 1713.0, 1711.0, 1711.0, 1710.0, 1709.0, 1711.0, 1710.0, 1710.0, 1709.0, 1708.0, 1710.0, 1710.0, 1713.0, 1713.0, 1714.0, 1714.0, 1713.0, 1713.0, 1713.0, 1713.0, 1715.0, 1712.0, 1710.0, 1713.0, 1715.0, 1716.0, 1718.0, 1713.0, 1714.0, 1715.0, 1716.0, 1713.0, 1707.0, 1705.0, 1703.0, 1706.0, 1708.0, 1708.0, 1709.0, 1710.0, 1714.0, 1712.0, 1707.0, 1708.0, 1710.0, 1713.0, 1716.0, 1714.0, 1711.0, 1705.0, 1708.0, 1710.0, 1712.0, 1711.0, 1708.0, 1712.0, 1715.0, 1711.0, 1709.0, 1706.0, 1709.0, 1711.0, 1710.0, 1707.0, 1705.0, 1707.0, 1709.0, 1706.0, 1708.0, 1704.0, 1703.0, 1709.0, 1712.0, 1710.0, 1708.0, 1707.0, 1708.0, 1709.0, 1712.0, 1712.0, 1710.0, 1708.0, 1706.0, 1705.0, 1707.0, 1706.0, 1708.0, 1705.0, 1706.0, 1704.0, 1702.0, 1706.0, 1706.0, 1704.0, 1702.0, 1700.0, 1705.0, 1706.0, 1709.0, 1707.0, 1706.0, 1705.0, 1711.0, 1711.0, 1711.0, 1708.0, 1709.0, 1710.0, 1712.0, 1714.0, 1713.0, 1715.0, 1715.0, 1715.0, 1714.0, 1713.0, 1714.0, 1714.0, 1713.0, 1711.0, 1709.0, 1712.0, 1715.0, 1713.0, 1712.0, 1712.0, 1710.0, 1710.0, 1715.0, 1715.0, 1709.0, 1705.0, 1702.0, 1703.0, 1701.0, 1705.0, 1707.0, 1711.0, 1709.0, 1704.0, 1708.0, 1712.0, 1711.0, 1706.0, 1703.0, 1701.0, 1702.0, 1706.0, 1709.0, 1710.0, 1708.0, 1708.0, 1709.0, 1711.0, 1712.0, 1709.0, 1706.0, 1703.0, 1706.0, 1709.0, 1709.0, 1709.0, 1706.0, 1705.0, 1706.0, 1705.0, 1709.0, 1713.0, 1714.0, 1709.0, 1706.0, 1706.0, 1705.0, 1703.0, 1702.0, 1706.0, 1709.0, 1710.0, 1707.0, 1704.0, 1702.0, 1702.0, 1706.0, 1707.0, 1704.0, 1703.0, 1704.0, 1705.0, 1704.0, 1700.0, 1700.0, 1699.0, 1703.0, 1710.0, 1713.0, 1710.0, 1707.0, 1706.0, 1706.0, 1708.0, 1712.0, 1710.0, 1709.0, 1706.0, 1706.0, 1705.0, 1705.0, 1709.0, 1712.0, 1712.0, 1709.0, 1705.0, 1706.0, 1706.0, 1707.0, 1705.0, 1705.0, 1703.0, 1704.0, 1706.0, 1707.0, 1708.0, 1708.0, 1707.0, 1710.0, 1712.0, 1713.0, 1714.0, 1714.0, 1714.0, 1712.0, 1706.0, 1702.0, 1698.0, 1695.0, 1699.0, 1703.0, 1703.0, 1699.0, 1700.0, 1699.0, 1701.0]
    },
    "slices": {}
  }
}