{
  "AcquisitionMatrixPE": 100,
  "AcquisitionNumber": 1,
  "AcquisitionTime": "16:22:6.352500",
  "BandwidthPerPixelPhaseEncode": 18.519,
  "BaseResolution": 100,
  "BodyPartExamined": "BRAIN",
  "ConsistencyInfo": "N4_VE11C_LATEST_20160120",
  "ConversionSoftware": "dcm2niix",
  "ConversionSoftwareVersion": "v1.0.20180622 GCC4.9.2",
  "DerivedVendorReportedEchoSpacing": 0.000539986,
  "DeviceSerialNumber": "166078",
  "DwellTime": 2.1e-06,
  "EchoTime": 0.034,
  "EchoTrainLength": 100,
  "EffectiveEchoSpacing": 0.000539986,
  "FlipAngle": 90,
  "ImageOrientationPatientDICOM": [0.999224, 0.0130177, 0.0371696, -0.00872005, 0.993497, -0.113527],
  "ImageType": [
    "ORIGINAL",
    "PRIMARY",
    "M",
    "ND",
    "MOSAIC"
],
  "InPlanePhaseEncodingDirectionDICOM": "COL",
  "InstitutionAddress": "Street_StreetNo_Bei_Jing_District_CN_ZIP",
  "InstitutionName": "BeiJing_Normal_University",
  "InstitutionalDepartmentName": "Department",
  "MRAcquisitionType": "2D",
  "MagneticFieldStrength": 3,
  "Manufacturer": "Siemens",
  "ManufacturersModelName": "Prisma",
  "Modality": "MR",
  "MultibandAccelerationFactor": 3,
  "PartialFourier": 1,
  "PatientPosition": "HFS",
  "PercentPhaseFOV": 100,
  "PhaseEncodingDirection": "j-",
  "PhaseEncodingSteps": 100,
  "PhaseResolution": 1,
  "PixelBandwidth": 2380,
  "ProcedureStepDescription": "BNU_P2018_64CH_Zhen.ZongLei",
  "ProtocolName": "bold_100x100_s3_2x2x2_static_256",
  "PulseSequenceDetails": "%SiemensSeq%_ep2d_bold",
  "ReceiveCoilActiveElements": "HC1-7;NC1",
  "ReceiveCoilName": "HeadNeck_64",
  "ReconMatrixPE": 100,
  "RepetitionTime": 2,
  "SAR": 0.0811982,
  "ScanOptions": "FS",
  "ScanningSequence": "EP",
  "SequenceName": "_epfid2d1_100",
  "SequenceVariant": "SK",
  "SeriesDescription": "bold_100x100_s3_2x2x2_static_256",
  "SeriesNumber": 11,
  "ShimSetting": [-5467, -11516, -1288, 566, 3, -137, -139, 4],
  "SliceThickness": 2,
  "SliceTiming": [1.485, 0, 0.99, 0.0825, 1.0725, 0.165, 1.155, 0.2475, 1.2375, 0.33, 1.32, 0.4125, 1.4025, 0.5775, 1.5675, 0.66, 1.65, 0.7425, 1.7325, 0.825, 1.815, 0.9075, 1.8975, 0.495, 1.485, 0, 0.99, 0.0825, 1.0725, 0.165, 1.155, 0.2475, 1.2375, 0.33, 1.32, 0.4125, 1.4025, 0.5775, 1.5675, 0.66, 1.65, 0.7425, 1.7325, 0.825, 1.815, 0.9075, 1.8975, 0.495, 1.485, 0, 0.99, 0.0825, 1.0725, 0.165, 1.155, 0.2475, 1.2375, 0.33, 1.32, 0.4125, 1.4025, 0.5775, 1.5675, 0.66, 1.65, 0.7425, 1.7325, 0.825, 1.815, 0.9075, 1.8975, 0.495],
  "SoftwareVersions": "syngo_MR_E11",
  "SpacingBetweenSlices": 2,
  "StationName": "AWP166078",
  "TaskName": "naturalvision",
  "TotalReadoutTime": 0.0534586,
  "TxRefAmp": 214.423,
  "dcmmeta_affine": [
    [-1.998448371887207, -0.017440106719732285, 0.07681138813495636, 98.10401153564453],
    [-0.026035424321889877, 1.9869931936264038, -0.22623048722743988, -89.13327026367188],
    [0.0743391141295433, 0.2270548790693283, 1.9856786727905273, -82.25032806396484],
    [0.0, 0.0, 0.0, 1.0]
],
  "dcmmeta_reorient_transform": [
    [0.0, -1.0, 0.0, 99.0],
    [1.0, 0.0, 0.0, 0.0],
    [0.0, 0.0, 1.0, 0.0],
    [0.0, 0.0, 0.0, 1.0]
],
  "dcmmeta_shape": [100, 100, 72, 256],
  "dcmmeta_slice_dim": 2,
  "dcmmeta_version": 0.6,
  "global": {
    "const": {
      "AcquisitionMatrix": [100, 0, 0, 100],
      "AngioFlag": "N",
      "BitsAllocated": 16,
      "BitsStored": 12,
      "BodyPartExamined": "BRAIN",
      "Columns": 900,
      "EchoNumbers": 1,
      "EchoTime": 34.0,
      "EchoTrainLength": 100,
      "FlipAngle": 90.0,
      "HighBit": 11,
      "ImageOrientationPatient": [0.99922418069525, 0.01301771177709, 0.03716955601025, -0.0087200529301, 0.99349659331527, -0.1135274405061],
      "ImagePositionPatient": [-888.78074040214, -912.79050119293, 1.3144117200598],
      "ImageType": [
        "ORIGINAL",
        "PRIMARY",
        "M",
        "ND",
        "MOSAIC"
],
      "ImagedNucleus": "1H",
      "ImagingFrequency": 123.257776,
      "InPlanePhaseEncodingDirection": "COL",
      "MRAcquisitionType": "2D",
      "MagneticFieldStrength": 3.0,
      "Manufacturer": "SIEMENS",
      "ManufacturerModelName": "Prisma",
      "Modality": "MR",
      "NumberOfAverages": 1.0,
      "NumberOfPhaseEncodingSteps": 100,
      "PercentPhaseFieldOfView": 100.0,
      "PercentSampling": 100.0,
      "PerformedProcedureStepStartTime": "151530.281000",
      "PhotometricInterpretation": "MONOCHROME2",
      "PixelBandwidth": 2380.0,
      "PixelRepresentation": 0,
      "PixelSpacing": [2.0, 2.0],
      "ProtocolName": "bold_100x100_s3_2x2x2_static_256",
      "RepetitionTime": 2000.0,
      "Rows": 900,
      "SAR": 0.08119818773296,
      "SamplesPerPixel": 1,
      "ScanOptions": "FS",
      "ScanningSequence": "EP",
      "SequenceName": "*epfid2d1_100",
      "SequenceVariant": "SK",
      "SeriesDescription": "bold_100x100_s3_2x2x2_static_256",
      "SeriesNumber": 11,
      "SeriesTime": "162209.266000",
      "SliceLocation": -67.811278069388,
      "SliceThickness": 2.0,
      "SmallestImagePixelValue": 0,
      "SoftwareVersions": "syngo MR E11",
      "SpacingBetweenSlices": 1.9999999903136,
      "SpecificCharacterSet": "ISO_IR 100",
      "StudyID": "1",
      "StudyTime": "151530.195000",
      "TransmitCoilName": "Body",
      "VariableFlipAngleFlag": "N",
      "WindowCenterWidthExplanation": "Algo1",
      "dBdt": 0.0},
    "slices": {}
  },
  "time": {
    "samples": {
      "AcquisitionNumber": [1, 2, 3, 4, 5, 6, 7, 8, 9, 10, 11, 12, 13, 14, 15, 16, 17, 18, 19, 20, 21, 22, 23, 24, 25, 26, 27, 28, 29, 30, 31, 32, 33, 34, 35, 36, 37, 38, 39, 40, 41, 42, 43, 44, 45, 46, 47, 48, 49, 50, 51, 52, 53, 54, 55, 56, 57, 58, 59, 60, 61, 62, 63, 64, 65, 66, 67, 68, 69, 70, 71, 72, 73, 74, 75, 76, 77, 78, 79, 80, 81, 82, 83, 84, 85, 86, 87, 88, 89, 90, 91, 92, 93, 94, 95, 96, 97, 98, 99, 100, 101, 102, 103, 104, 105, 106, 107, 108, 109, 110, 111, 112, 113, 114, 115, 116, 117, 118, 119, 120, 121, 122, 123, 124, 125, 126, 127, 128, 129, 130, 131, 132, 133, 134, 135, 136, 137, 138, 139, 140, 141, 142, 143, 144, 145, 146, 147, 148, 149, 150, 151, 152, 153, 154, 155, 156, 157, 158, 159, 160, 161, 162, 163, 164, 165, 166, 167, 168, 169, 170, 171, 172, 173, 174, 175, 176, 177, 178, 179, 180, 181, 182, 183, 184, 185, 186, 187, 188, 189, 190, 191, 192, 193, 194, 195, 196, 197, 198, 199, 200, 201, 202, 203, 204, 205, 206, 207, 208, 209, 210, 211, 212, 213, 214, 215, 216, 217, 218, 219, 220, 221, 222, 223, 224, 225, 226, 227, 228, 229, 230, 231, 232, 233, 234, 235, 236, 237, 238, 239, 240, 241, 242, 243, 244, 245, 246, 247, 248, 249, 250, 251, 252, 253, 254, 255, 256],
      "AcquisitionTime": ["162206.352500", "162208.352500", "162210.352500", "162212.352500", "162214.352500", "162216.352500", "162218.352500", "162220.352500", "162222.352500", "162224.352500", "162226.352500", "162228.352500", "162230.352500", "162232.352500", "162234.352500", "162236.352500", "162238.352500", "162240.352500", "162242.352500", "162244.352500", "162246.352500", "162248.352500", "162250.352500", "162252.352500", "162254.352500", "162256.352500", "162258.352500", "162300.352500", "162302.352500", "162304.352500", "162306.352500", "162308.352500", "162310.352500", "162312.352500", "162314.352500", "162316.352500", "162318.352500", "162320.352500", "162322.352500", "162324.352500", "162326.352500", "162328.352500", "162330.352500", "162332.352500", "162334.352500", "162336.352500", "162338.352500", "162340.352500", "162342.352500", "162344.352500", "162346.352500", "162348.352500", "162350.352500", "162352.352500", "162354.352500", "162356.352500", "162358.352500", "162400.352500", "162402.352500", "162404.352500", "162406.352500", "162408.352500", "162410.352500", "162412.352500", "162414.352500", "162416.352500", "162418.352500", "162420.352500", "162422.352500", "162424.352500", "162426.352500", "162428.352500", "162430.352500", "162432.352500", "162434.352500", "162436.352500", "162438.352500", "162440.352500", "162442.352500", "162444.352500", "162446.352500", "162448.352500", "162450.352500", "162452.352500", "162454.352500", "162456.352500", "162458.352500", "162500.352500", "162502.352500", "162504.352500", "162506.352500", "162508.352500", "162510.352500", "162512.352500", "162514.352500", "162516.352500", "162518.352500", "162520.352500", "162522.352500", "162524.352500", "162526.352500", "162528.352500", "162530.352500", "162532.352500", "162534.352500", "162536.352500", "162538.352500", "162540.352500", "162542.352500", "162544.352500", "162546.352500", "162548.352500", "162550.352500", "162552.352500", "162554.352500", "162556.352500", "162558.352500", "162600.352500", "162602.352500", "162604.352500", "162606.352500", "162608.352500", "162610.352500", "162612.352500", "162614.352500", "162616.352500", "162618.352500", "162620.352500", "162622.352500", "162624.352500", "162626.352500", "162628.352500", "162630.352500", "162632.352500", "162634.352500", "162636.352500", "162638.352500", "162640.352500", "162642.352500", "162644.352500", "162646.352500", "162648.352500", "162650.352500", "162652.352500", "162654.352500", "162656.352500", "162658.352500", "162700.352500", "162702.352500", "162704.352500", "162706.352500", "162708.352500", "162710.352500", "162712.352500", "162714.352500", "162716.352500", "162718.352500", "162720.352500", "162722.352500", "162724.352500", "162726.352500", "162728.352500", "162730.352500", "162732.352500", "162734.352500", "162736.352500", "162738.352500", "162740.352500", "162742.352500", "162744.352500", "162746.352500", "162748.352500", "162750.352500", "162752.352500", "162754.352500", "162756.352500", "162758.352500", "162800.352500", "162802.352500", "162804.352500", "162806.352500", "162808.352500", "162810.352500", "162812.352500", "162814.352500", "162816.352500", "162818.352500", "162820.352500", "162822.352500", "162824.352500", "162826.352500", "162828.352500", "162830.352500", "162832.352500", "162834.352500", "162836.352500", "162838.352500", "162840.352500", "162842.352500", "162844.352500", "162846.352500", "162848.352500", "162850.352500", "162852.352500", "162854.352500", "162856.352500", "162858.352500", "162900.352500", "162902.352500", "162904.352500", "162906.352500", "162908.352500", "162910.352500", "162912.352500", "162914.352500", "162916.352500", "162918.352500", "162920.352500", "162922.352500", "162924.352500", "162926.352500", "162928.352500", "162930.352500", "162932.352500", "162934.352500", "162936.352500", "162938.352500", "162940.352500", "162942.352500", "162944.352500", "162946.352500", "162948.352500", "162950.352500", "162952.352500", "162954.352500", "162956.352500", "162958.352500", "163000.352500", "163002.352500", "163004.352500", "163006.352500", "163008.352500", "163010.352500", "163012.352500", "163014.352500", "163016.352500", "163018.352500", "163020.352500", "163022.352500", "163024.352500", "163026.352500", "163028.352500", "163030.352500", "163032.352500", "163034.352500", "163036.352500"],
      "ContentTime": ["162209.270000", "162210.266000", "162212.266000", "162214.265000", "162216.265000", "162218.264000", "162220.265000", "162222.266000", "162224.266000", "162226.266000", "162228.265000", "162230.265000", "162232.265000", "162234.265000", "162236.265000", "162238.265000", "162240.266000", "162242.265000", "162244.265000", "162246.266000", "162248.265000", "162250.265000", "162252.266000", "162254.264000", "162256.265000", "162258.266000", "162300.265000", "162302.265000", "162304.265000", "162306.265000", "162308.266000", "162310.265000", "162312.265000", "162314.265000", "162316.266000", "162318.265000", "162320.265000", "162322.266000", "162324.265000", "162326.266000", "162328.265000", "162330.265000", "162332.265000", "162334.266000", "162336.265000", "162338.266000", "162340.265000", "162342.265000", "162344.265000", "162346.264000", "162348.265000", "162350.266000", "162352.265000", "162354.265000", "162356.265000", "162358.265000", "162400.265000", "162402.266000", "162404.264000", "162406.265000", "162408.265000", "162410.265000", "162412.265000", "162414.266000", "162416.265000", "162418.265000", "162420.264000", "162422.265000", "162424.265000", "162426.266000", "162428.266000", "162430.265000", "162432.266000", "162434.266000", "162436.266000", "162438.264000", "162440.265000", "162442.265000", "162444.266000", "162446.266000", "162448.265000", "162450.265000", "162452.265000", "162454.266000", "162456.265000", "162458.266000", "162500.265000", "162502.266000", "162504.266000", "162506.265000", "162508.266000", "162510.265000", "162512.266000", "162514.265000", "162516.265000", "162518.266000", "162520.265000", "162522.265000", "162524.265000", "162526.265000", "162528.265000", "162530.264000", "162532.265000", "162534.266000", "162536.265000", "162538.265000", "162540.265000", "162542.266000", "162544.266000", "162546.265000", "162548.264000", "162550.266000", "162552.265000", "162554.265000", "162556.266000", "162558.266000", "162600.265000", "162602.266000", "162604.266000", "162606.264000", "162608.265000", "162610.266000", "162612.265000", "162614.265000", "162616.266000", "162618.266000", "162620.265000", "162622.266000", "162624.264000", "162626.266000", "162628.266000", "162630.265000", "162632.266000", "162634.265000", "162636.266000", "162638.266000", "162640.264000", "162642.264000", "162644.265000", "162646.266000", "162648.266000", "162650.265000", "162652.265000", "162654.265000", "162656.265000", "162658.264000", "162700.266000", "162702.266000", "162704.266000", "162706.266000", "162708.265000", "162710.265000", "162712.265000", "162714.265000", "162716.264000", "162718.265000", "162720.266000", "162722.265000", "162724.265000", "162726.265000", "162728.266000", "162730.266000", "162732.266000", "162734.265000", "162736.265000", "162738.265000", "162740.266000", "162742.266000", "162744.266000", "162746.265000", "162748.266000", "162750.265000", "162752.264000", "162754.265000", "162756.265000", "162758.265000", "162800.266000", "162802.266000", "162804.266000", "162806.265000", "162808.264000", "162810.266000", "162812.265000", "162814.265000", "162816.265000", "162818.265000", "162820.265000", "162822.266000", "162824.266000", "162826.264000", "162828.265000", "162830.265000", "162832.266000", "162834.266000", "162836.265000", "162838.265000", "162840.265000", "162842.266000", "162844.264000", "162846.266000", "162848.266000", "162850.266000", "162852.266000", "162854.265000", "162856.265000", "162858.266000", "162900.265000", "162902.265000", "162904.266000", "162906.266000", "162908.265000", "162910.265000", "162912.265000", "162914.266000", "162916.265000", "162918.264000", "162920.265000", "162922.266000", "162924.266000", "162926.265000", "162928.266000", "162930.265000", "162932.266000", "162934.265000", "162936.265000", "162938.265000", "162940.265000", "162942.266000", "162944.266000", "162946.266000", "162948.266000", "162950.265000", "162952.265000", "162954.264000", "162956.266000", "162958.266000", "163000.265000", "163002.266000", "163004.265000", "163006.265000", "163008.266000", "163010.264000", "163012.265000", "163014.265000", "163016.265000", "163018.266000", "163020.265000", "163022.265000", "163024.266000", "163026.266000", "163028.265000", "163030.266000", "163032.266000", "163034.266000", "163036.266000", "163038.072000"],
      "InstanceCreationTime": ["162209.270000", "162210.266000", "162212.266000", "162214.265000", "162216.265000", "162218.264000", "162220.265000", "162222.266000", "162224.266000", "162226.266000", "162228.265000", "162230.265000", "162232.265000", "162234.265000", "162236.265000", "162238.265000", "162240.266000", "162242.265000", "162244.265000", "162246.266000", "162248.265000", "162250.265000", "162252.266000", "162254.264000", "162256.265000", "162258.266000", "162300.265000", "162302.265000", "162304.265000", "162306.265000", "162308.266000", "162310.265000", "162312.265000", "162314.265000", "162316.266000", "162318.265000", "162320.265000", "162322.266000", "162324.265000", "162326.266000", "162328.265000", "162330.265000", "162332.265000", "162334.266000", "162336.265000", "162338.266000", "162340.265000", "162342.265000", "162344.265000", "162346.264000", "162348.265000", "162350.266000", "162352.265000", "162354.265000", "162356.265000", "162358.265000", "162400.265000", "162402.266000", "162404.264000", "162406.265000", "162408.265000", "162410.265000", "162412.265000", "162414.266000", "162416.265000", "162418.265000", "162420.264000", "162422.265000", "162424.265000", "162426.266000", "162428.266000", "162430.265000", "162432.266000", "162434.266000", "162436.266000", "162438.264000", "162440.265000", "162442.265000", "162444.266000", "162446.266000", "162448.265000", "162450.265000", "162452.265000", "162454.266000", "162456.265000", "162458.266000", "162500.265000", "162502.266000", "162504.266000", "162506.265000", "162508.266000", "162510.265000", "162512.266000", "162514.265000", "162516.265000", "162518.266000", "162520.265000", "162522.265000", "162524.265000", "162526.265000", "162528.265000", "162530.264000", "162532.265000", "162534.266000", "162536.265000", "162538.265000", "162540.265000", "162542.266000", "162544.266000", "162546.265000", "162548.264000", "162550.266000", "162552.265000", "162554.265000", "162556.266000", "162558.266000", "162600.265000", "162602.266000", "162604.266000", "162606.264000", "162608.265000", "162610.266000", "162612.265000", "162614.265000", "162616.266000", "162618.266000", "162620.265000", "162622.266000", "162624.264000", "162626.266000", "162628.266000", "162630.265000", "162632.266000", "162634.265000", "162636.266000", "162638.266000", "162640.264000", "162642.264000", "162644.265000", "162646.266000", "162648.266000", "162650.265000", "162652.265000", "162654.265000", "162656.265000", "162658.264000", "162700.266000", "162702.266000", "162704.266000", "162706.266000", "162708.265000", "162710.265000", "162712.265000", "162714.265000", "162716.264000", "162718.265000", "162720.266000", "162722.265000", "162724.265000", "162726.265000", "162728.266000", "162730.266000", "162732.266000", "162734.265000", "162736.265000", "162738.265000", "162740.266000", "162742.266000", "162744.266000", "162746.265000", "162748.266000", "162750.265000", "162752.264000", "162754.265000", "162756.265000", "162758.265000", "162800.266000", "162802.266000", "162804.266000", "162806.265000", "162808.264000", "162810.266000", "162812.265000", "162814.265000", "162816.265000", "162818.265000", "162820.265000", "162822.266000", "162824.266000", "162826.264000", "162828.265000", "162830.265000", "162832.266000", "162834.266000", "162836.265000", "162838.265000", "162840.265000", "162842.266000", "162844.264000", "162846.266000", "162848.266000", "162850.266000", "162852.266000", "162854.265000", "162856.265000", "162858.266000", "162900.265000", "162902.265000", "162904.266000", "162906.266000", "162908.265000", "162910.265000", "162912.265000", "162914.266000", "162916.265000", "162918.264000", "162920.265000", "162922.266000", "162924.266000", "162926.265000", "162928.266000", "162930.265000", "162932.266000", "162934.265000", "162936.265000", "162938.265000", "162940.265000", "162942.266000", "162944.266000", "162946.266000", "162948.266000", "162950.265000", "162952.265000", "162954.264000", "162956.266000", "162958.266000", "163000.265000", "163002.266000", "163004.265000", "163006.265000", "163008.266000", "163010.264000", "163012.265000", "163014.265000", "163016.265000", "163018.266000", "163020.265000", "163022.265000", "163024.266000", "163026.266000", "163028.265000", "163030.266000", "163032.266000", "163034.266000", "163036.266000", "163038.072000"],
      "InstanceNumber": [1, 2, 3, 4, 5, 6, 7, 8, 9, 10, 11, 12, 13, 14, 15, 16, 17, 18, 19, 20, 21, 22, 23, 24, 25, 26, 27, 28, 29, 30, 31, 32, 33, 34, 35, 36, 37, 38, 39, 40, 41, 42, 43, 44, 45, 46, 47, 48, 49, 50, 51, 52, 53, 54, 55, 56, 57, 58, 59, 60, 61, 62, 63, 64, 65, 66, 67, 68, 69, 70, 71, 72, 73, 74, 75, 76, 77, 78, 79, 80, 81, 82, 83, 84, 85, 86, 87, 88, 89, 90, 91, 92, 93, 94, 95, 96, 97, 98, 99, 100, 101, 102, 103, 104, 105, 106, 107, 108, 109, 110, 111, 112, 113, 114, 115, 116, 117, 118, 119, 120, 121, 122, 123, 124, 125, 126, 127, 128, 129, 130, 131, 132, 133, 134, 135, 136, 137, 138, 139, 140, 141, 142, 143, 144, 145, 146, 147, 148, 149, 150, 151, 152, 153, 154, 155, 156, 157, 158, 159, 160, 161, 162, 163, 164, 165, 166, 167, 168, 169, 170, 171, 172, 173, 174, 175, 176, 177, 178, 179, 180, 181, 182, 183, 184, 185, 186, 187, 188, 189, 190, 191, 192, 193, 194, 195, 196, 197, 198, 199, 200, 201, 202, 203, 204, 205, 206, 207, 208, 209, 210, 211, 212, 213, 214, 215, 216, 217, 218, 219, 220, 221, 222, 223, 224, 225, 226, 227, 228, 229, 230, 231, 232, 233, 234, 235, 236, 237, 238, 239, 240, 241, 242, 243, 244, 245, 246, 247, 248, 249, 250, 251, 252, 253, 254, 255, 256],
      "LargestImagePixelValue": [2576, 2485, 2486, 2518, 2550, 2505, 2503, 2489, 2480, 2505, 2477, 2512, 2606, 2547, 2544, 2546, 2539, 2493, 2527, 2603, 2565, 2565, 2597, 2587, 2564, 2551, 2575, 2567, 2604, 2570, 2588, 2564, 2579, 2580, 2566, 2555, 2615, 2552, 2587, 2584, 2574, 2533, 2572, 2588, 2586, 2561, 2591, 2573, 2612, 2592, 2647, 2593, 2618, 2616, 2661, 2630, 2620, 2647, 2611, 2661, 2667, 2655, 2667, 2623, 2662, 2657, 2673, 2654, 2649, 2642, 2627, 2645, 2669, 2626, 2658, 2645, 2654, 2644, 2529, 2706, 2664, 2650, 2665, 2671, 2716, 2685, 2679, 2650, 2697, 2630, 2679, 2699, 2673, 2678, 2668, 2656, 2687, 2684, 2655, 2651, 2679, 2711, 2691, 2658, 2663, 2644, 2659, 2623, 2652, 2648, 2650, 2647, 2660, 2659, 2714, 2656, 2668, 2649, 2676, 2702, 2744, 2701, 2728, 2696, 2697, 2668, 2667, 2677, 2635, 2665, 2643, 2645, 2617, 2629, 2666, 2643, 2652, 2599, 2641, 2648, 2650, 2641, 2631, 2611, 2642, 2635, 2626, 2627, 2640, 2614, 2667, 2623, 2625, 2629, 2677, 2624, 2643, 2608, 2618, 2707, 2655, 2647, 2636, 2634, 2674, 2666, 2657, 2676, 2638, 2640, 2638, 2619, 2650, 2657, 2649, 2577, 2655, 2674, 2669, 2685, 2648, 2633, 2663, 2664, 2686, 2666, 2676, 2660, 2611, 2626, 2692, 2607, 2652, 2606, 2819, 2667, 2628, 2659, 2614, 2663, 2664, 2624, 2680, 2612, 2653, 2612, 2636, 2610, 2635, 2654, 2627, 2638, 2659, 2600, 2648, 2626, 2649, 2651, 2681, 2682, 2647, 2681, 2681, 2652, 2676, 2646, 2666, 2681, 2652, 2640, 2638, 2665, 2632, 2652, 2683, 2621, 2669, 2629, 2650, 2639, 2684, 2670, 2676, 2661, 2662, 2729, 2669, 2628, 2655, 2654, 2658, 2681, 2648, 2646, 2663, 2710],
      "WindowCenter": [720.0, 718.0, 718.0, 718.0, 719.0, 718.0, 717.0, 717.0, 717.0, 718.0, 719.0, 715.0, 723.0, 721.0, 721.0, 720.0, 719.0, 718.0, 718.0, 720.0, 719.0, 719.0, 720.0, 721.0, 720.0, 720.0, 720.0, 720.0, 720.0, 721.0, 720.0, 719.0, 720.0, 721.0, 721.0, 720.0, 721.0, 720.0, 719.0, 719.0, 720.0, 720.0, 720.0, 719.0, 720.0, 720.0, 720.0, 720.0, 720.0, 720.0, 722.0, 721.0, 721.0, 722.0, 721.0, 720.0, 719.0, 719.0, 719.0, 720.0, 721.0, 720.0, 720.0, 721.0, 720.0, 719.0, 719.0, 719.0, 719.0, 719.0, 719.0, 719.0, 720.0, 719.0, 719.0, 719.0, 719.0, 718.0, 716.0, 720.0, 719.0, 719.0, 720.0, 720.0, 721.0, 721.0, 721.0, 720.0, 720.0, 719.0, 720.0, 721.0, 720.0, 720.0, 720.0, 720.0, 720.0, 720.0, 721.0, 720.0, 720.0, 720.0, 721.0, 720.0, 719.0, 718.0, 717.0, 717.0, 718.0, 717.0, 717.0, 718.0, 719.0, 718.0, 719.0, 719.0, 719.0, 719.0, 719.0, 719.0, 719.0, 719.0, 720.0, 722.0, 723.0, 722.0, 721.0, 720.0, 720.0, 720.0, 722.0, 722.0, 721.0, 720.0, 721.0, 721.0, 720.0, 719.0, 718.0, 718.0, 717.0, 717.0, 718.0, 718.0, 718.0, 718.0, 718.0, 719.0, 719.0, 719.0, 719.0, 718.0, 718.0, 719.0, 719.0, 718.0, 719.0, 718.0, 718.0, 718.0, 719.0, 719.0, 718.0, 716.0, 715.0, 715.0, 715.0, 716.0, 716.0, 716.0, 717.0, 718.0, 718.0, 717.0, 717.0, 717.0, 718.0, 718.0, 718.0, 718.0, 717.0, 717.0, 717.0, 717.0, 719.0, 720.0, 720.0, 718.0, 715.0, 714.0, 716.0, 716.0, 716.0, 715.0, 719.0, 717.0, 718.0, 719.0, 719.0, 719.0, 719.0, 718.0, 719.0, 720.0, 720.0, 720.0, 720.0, 720.0, 720.0, 720.0, 720.0, 719.0, 720.0, 720.0, 720.0, 720.0, 720.0, 720.0, 720.0, 721.0, 721.0, 721.0, 721.0, 719.0, 719.0, 719.0, 720.0, 721.0, 720.0, 719.0, 719.0, 720.0, 719.0, 719.0, 719.0, 718.0, 719.0, 720.0, 721.0, 719.0, 718.0, 718.0, 718.0, 719.0, 720.0, 721.0, 719.0, 719.0, 718.0, 717.0, 717.0, 717.0, 717.0, 718.0, 718.0, 719.0],
      "WindowWidth": [1545.0, 1540.0, 1540.0, 1541.0, 1542.0, 1539.0, 1536.0, 1537.0, 1538.0, 1540.0, 1542.0, 1535.0, 1553.0, 1549.0, 1548.0, 1547.0, 1545.0, 1540.0, 1541.0, 1544.0, 1542.0, 1542.0, 1545.0, 1547.0, 1546.0, 1546.0, 1545.0, 1544.0, 1546.0, 1547.0, 1546.0, 1544.0, 1544.0, 1546.0, 1548.0, 1546.0, 1549.0, 1544.0, 1543.0, 1543.0, 1545.0, 1545.0, 1545.0, 1544.0, 1546.0, 1545.0, 1546.0, 1546.0, 1547.0, 1546.0, 1550.0, 1549.0, 1549.0, 1549.0, 1548.0, 1544.0, 1543.0, 1542.0, 1543.0, 1544.0, 1546.0, 1544.0, 1544.0, 1547.0, 1546.0, 1543.0, 1542.0, 1541.0, 1542.0, 1542.0, 1542.0, 1543.0, 1545.0, 1543.0, 1543.0, 1542.0, 1543.0, 1541.0, 1535.0, 1545.0, 1542.0, 1543.0, 1546.0, 1546.0, 1548.0, 1547.0, 1547.0, 1545.0, 1545.0, 1543.0, 1546.0, 1547.0, 1546.0, 1545.0, 1546.0, 1546.0, 1546.0, 1546.0, 1547.0, 1546.0, 1546.0, 1546.0, 1548.0, 1545.0, 1542.0, 1539.0, 1537.0, 1536.0, 1539.0, 1537.0, 1538.0, 1539.0, 1541.0, 1540.0, 1543.0, 1543.0, 1542.0, 1541.0, 1541.0, 1541.0, 1542.0, 1541.0, 1545.0, 1550.0, 1552.0, 1549.0, 1548.0, 1545.0, 1544.0, 1545.0, 1549.0, 1549.0, 1548.0, 1546.0, 1548.0, 1546.0, 1543.0, 1541.0, 1540.0, 1539.0, 1537.0, 1538.0, 1540.0, 1539.0, 1539.0, 1540.0, 1541.0, 1543.0, 1543.0, 1542.0, 1542.0, 1540.0, 1540.0, 1542.0, 1542.0, 1540.0, 1542.0, 1540.0, 1540.0, 1540.0, 1542.0, 1541.0, 1539.0, 1535.0, 1531.0, 1532.0, 1532.0, 1534.0, 1534.0, 1534.0, 1538.0, 1540.0, 1539.0, 1538.0, 1537.0, 1538.0, 1538.0, 1539.0, 1539.0, 1538.0, 1537.0, 1536.0, 1536.0, 1537.0, 1542.0, 1544.0, 1544.0, 1540.0, 1532.0, 1531.0, 1533.0, 1534.0, 1535.0, 1533.0, 1541.0, 1538.0, 1539.0, 1541.0, 1543.0, 1543.0, 1541.0, 1540.0, 1543.0, 1544.0, 1546.0, 1544.0, 1545.0, 1546.0, 1545.0, 1545.0, 1544.0, 1543.0, 1544.0, 1544.0, 1545.0, 1544.0, 1545.0, 1545.0, 1543.0, 1546.0, 1548.0, 1548.0, 1546.0, 1542.0, 1541.0, 1543.0, 1545.0, 1546.0, 1545.0, 1542.0, 1543.0, 1544.0, 1543.0, 1541.0, 1541.0, 1540.0, 1541.0, 1544.0, 1548.0, 1543.0, 1540.0, 1538.0, 1540.0, 1542.0, 1545.0, 1546.0, 1542.0, 1541.0, 1539.0, 1537.0, 1536.0, 1537.0, 1537.0, 1538.0, 1540.0, 1541.0]
    },
    "slices": {}
  }
}