{
 "AcquisitionMatrixPE": 100,
 "AcquisitionNumber": 1,
 "AcquisitionTime": "13:07:8.712500",
 "BandwidthPerPixelPhaseEncode": 18.519,
 "BaseResolution": 100,
 "BodyPartExamined": "BRAIN",
 "ConsistencyInfo": "N4_VE11C_LATEST_20160120",
 "ConversionSoftware": "dcm2niix",
 "ConversionSoftwareVersion": "v1.0.20180622 GCC4.9.2",
 "DerivedVendorReportedEchoSpacing": 0.000539986,
 "DeviceSerialNumber": "166078",
 "DwellTime": 2.1e-06,
 "EchoTime": 0.034,
 "EchoTrainLength": 100,
 "EffectiveEchoSpacing": 0.000539986,
 "FlipAngle": 90,
 "ImageOrientationPatientDICOM": [
  1,
  0,
  0,
  0,
  0.985109,
  -0.171929
 ],
 "ImageType": [
  "ORIGINAL",
  "PRIMARY",
  "M",
  "ND",
  "MOSAIC"
 ],
 "InPlanePhaseEncodingDirectionDICOM": "COL",
 "InstitutionAddress": "Street_StreetNo_Bei_Jing_District_CN_ZIP",
 "InstitutionName": "BeiJing_Normal_University",
 "InstitutionalDepartmentName": "Department",
 "MRAcquisitionType": "2D",
 "MagneticFieldStrength": 3,
 "Manufacturer": "Siemens",
 "ManufacturersModelName": "Prisma",
 "Modality": "MR",
 "MultibandAccelerationFactor": 3,
 "PartialFourier": 1,
 "PatientPosition": "HFS",
 "PercentPhaseFOV": 100,
 "PhaseEncodingDirection": "j-",
 "PhaseEncodingSteps": 100,
 "PhaseResolution": 1,
 "PixelBandwidth": 2380,
 "ProcedureStepDescription": "BNU_P2018_64CH_Zhen.ZongLei",
 "ProtocolName": "bold_100x100_s3_2x2x2_cat_150",
 "PulseSequenceDetails": "%SiemensSeq%_ep2d_bold",
 "ReceiveCoilActiveElements": "HC1-7;NC1",
 "ReceiveCoilName": "HeadNeck_64",
 "ReconMatrixPE": 100,
 "RepetitionTime": 2,
 "SAR": 0.0841872,
 "ScanOptions": "FS",
 "ScanningSequence": "EP",
 "SequenceName": "_epfid2d1_100",
 "SequenceVariant": "SK",
 "SeriesDescription": "bold_100x100_s3_2x2x2_cat_150",
 "SeriesNumber": 8,
 "ShimSetting": [
  -5481,
  -11509,
  -1252,
  521,
  -54,
  -236,
  -148,
  128
 ],
 "SliceThickness": 2,
 "SliceTiming": [
  1.485,
  0,
  0.99,
  0.0825,
  1.0725,
  0.165,
  1.155,
  0.2475,
  1.2375,
  0.33,
  1.32,
  0.4125,
  1.4025,
  0.5775,
  1.5675,
  0.66,
  1.65,
  0.7425,
  1.7325,
  0.825,
  1.815,
  0.9075,
  1.8975,
  0.495,
  1.485,
  0,
  0.99,
  0.0825,
  1.0725,
  0.165,
  1.155,
  0.2475,
  1.2375,
  0.33,
  1.32,
  0.4125,
  1.4025,
  0.5775,
  1.5675,
  0.66,
  1.65,
  0.7425,
  1.7325,
  0.825,
  1.815,
  0.9075,
  1.8975,
  0.495,
  1.485,
  0,
  0.99,
  0.0825,
  1.0725,
  0.165,
  1.155,
  0.2475,
  1.2375,
  0.33,
  1.32,
  0.4125,
  1.4025,
  0.5775,
  1.5675,
  0.66,
  1.65,
  0.7425,
  1.7325,
  0.825,
  1.815,
  0.9075,
  1.8975,
  0.495
 ],
 "SoftwareVersions": "syngo_MR_E11",
 "SpacingBetweenSlices": 2,
 "StationName": "AWP166078",
 "TaskName": "floc",
 "TotalReadoutTime": 0.0534586,
 "TxRefAmp": 230.376,
 "dcmmeta_affine": [
  [
   -2.0,
   0.0,
   0.0,
   102.02409362792969
  ],
  [
   0.0,
   1.9702186584472656,
   -0.34385818243026733,
   -84.04940795898438
  ],
  [
   0.0,
   0.3438582122325897,
   1.9702186584472656,
   -83.70747375488281
  ],
  [
   0.0,
   0.0,
   0.0,
   1.0
  ]
 ],
 "dcmmeta_reorient_transform": [
  [
   0.0,
   -1.0,
   0.0,
   99.0
  ],
  [
   1.0,
   0.0,
   0.0,
   0.0
  ],
  [
   0.0,
   0.0,
   1.0,
   0.0
  ],
  [
   0.0,
   0.0,
   0.0,
   1.0
  ]
 ],
 "dcmmeta_shape": [
  100,
  100,
  72,
  150
 ],
 "dcmmeta_slice_dim": 2,
 "dcmmeta_version": 0.6,
 "global": {
  "const": {
   "AcquisitionMatrix": [
    100,
    0,
    0,
    100
   ],
   "AngioFlag": "N",
   "BitsAllocated": 16,
   "BitsStored": 12,
   "BodyPartExamined": "BRAIN",
   "Columns": 900,
   "EchoNumbers": 1,
   "EchoTime": 34.0,
   "EchoTrainLength": 100,
   "FlipAngle": 90.0,
   "HighBit": 11,
   "ImageOrientationPatient": [
    1.0,
    0.0,
    0.0,
    0.0,
    0.98510932620277,
    -0.1719291000044
   ],
   "ImagePositionPatient": [
    -902.02409648895,
    -899.0896970264,
    87.877768678303
   ],
   "ImageType": [
    "ORIGINAL",
    "PRIMARY",
    "M",
    "ND",
    "MOSAIC"
   ],
   "ImagedNucleus": "1H",
   "ImagingFrequency": 123.257756,
   "InPlanePhaseEncodingDirection": "COL",
   "MRAcquisitionType": "2D",
   "MagneticFieldStrength": 3.0,
   "Manufacturer": "SIEMENS",
   "ManufacturerModelName": "Prisma",
   "Modality": "MR",
   "NumberOfAverages": 1.0,
   "NumberOfPhaseEncodingSteps": 100,
   "PercentPhaseFieldOfView": 100.0,
   "PercentSampling": 100.0,
   "PerformedProcedureStepStartTime": "121324.353000",
   "PhotometricInterpretation": "MONOCHROME2",
   "PixelBandwidth": 2380.0,
   "PixelRepresentation": 0,
   "PixelSpacing": [
    2.0,
    2.0
   ],
   "ProtocolName": "bold_100x100_s3_2x2x2_cat_150",
   "RepetitionTime": 2000.0,
   "Rows": 900,
   "SAR": 0.08418718233249,
   "SamplesPerPixel": 1,
   "ScanOptions": "FS",
   "ScanningSequence": "EP",
   "SequenceName": "*epfid2d1_100",
   "SequenceVariant": "SK",
   "SeriesDescription": "bold_100x100_s3_2x2x2_cat_150",
   "SeriesNumber": 8,
   "SeriesTime": "130711.622000",
   "SliceLocation": -68.010472942118,
   "SliceThickness": 2.0,
   "SmallestImagePixelValue": 0,
   "SoftwareVersions": "syngo MR E11",
   "SpacingBetweenSlices": 1.9999999521664,
   "SpecificCharacterSet": "ISO_IR 100",
   "StudyID": "1",
   "StudyTime": "121324.253000",
   "TransmitCoilName": "Body",
   "VariableFlipAngleFlag": "N",
   "WindowCenterWidthExplanation": "Algo1",
   "dBdt": 0.0
  },
  "slices": {}
 },
 "time": {
  "samples": {
   "AcquisitionNumber": [
    1,
    2,
    3,
    4,
    5,
    6,
    7,
    8,
    9,
    10,
    11,
    12,
    13,
    14,
    15,
    16,
    17,
    18,
    19,
    20,
    21,
    22,
    23,
    24,
    25,
    26,
    27,
    28,
    29,
    30,
    31,
    32,
    33,
    34,
    35,
    36,
    37,
    38,
    39,
    40,
    41,
    42,
    43,
    44,
    45,
    46,
    47,
    48,
    49,
    50,
    51,
    52,
    53,
    54,
    55,
    56,
    57,
    58,
    59,
    60,
    61,
    62,
    63,
    64,
    65,
    66,
    67,
    68,
    69,
    70,
    71,
    72,
    73,
    74,
    75,
    76,
    77,
    78,
    79,
    80,
    81,
    82,
    83,
    84,
    85,
    86,
    87,
    88,
    89,
    90,
    91,
    92,
    93,
    94,
    95,
    96,
    97,
    98,
    99,
    100,
    101,
    102,
    103,
    104,
    105,
    106,
    107,
    108,
    109,
    110,
    111,
    112,
    113,
    114,
    115,
    116,
    117,
    118,
    119,
    120,
    121,
    122,
    123,
    124,
    125,
    126,
    127,
    128,
    129,
    130,
    131,
    132,
    133,
    134,
    135,
    136,
    137,
    138,
    139,
    140,
    141,
    142,
    143,
    144,
    145,
    146,
    147,
    148,
    149,
    150
   ],
   "AcquisitionTime": [
    "130708.712500",
    "130710.712500",
    "130712.712500",
    "130714.712500",
    "130716.712500",
    "130718.712500",
    "130720.712500",
    "130722.712500",
    "130724.712500",
    "130726.712500",
    "130728.712500",
    "130730.712500",
    "130732.712500",
    "130734.712500",
    "130736.712500",
    "130738.712500",
    "130740.712500",
    "130742.712500",
    "130744.712500",
    "130746.712500",
    "130748.712500",
    "130750.712500",
    "130752.712500",
    "130754.712500",
    "130756.712500",
    "130758.712500",
    "130800.712500",
    "130802.712500",
    "130804.712500",
    "130806.712500",
    "130808.712500",
    "130810.712500",
    "130812.712500",
    "130814.712500",
    "130816.712500",
    "130818.712500",
    "130820.712500",
    "130822.712500",
    "130824.712500",
    "130826.712500",
    "130828.712500",
    "130830.712500",
    "130832.712500",
    "130834.712500",
    "130836.712500",
    "130838.712500",
    "130840.712500",
    "130842.712500",
    "130844.712500",
    "130846.712500",
    "130848.712500",
    "130850.712500",
    "130852.712500",
    "130854.712500",
    "130856.712500",
    "130858.712500",
    "130900.712500",
    "130902.712500",
    "130904.712500",
    "130906.712500",
    "130908.712500",
    "130910.712500",
    "130912.712500",
    "130914.712500",
    "130916.712500",
    "130918.712500",
    "130920.712500",
    "130922.712500",
    "130924.712500",
    "130926.712500",
    "130928.712500",
    "130930.712500",
    "130932.712500",
    "130934.712500",
    "130936.712500",
    "130938.712500",
    "130940.712500",
    "130942.712500",
    "130944.712500",
    "130946.712500",
    "130948.712500",
    "130950.712500",
    "130952.712500",
    "130954.712500",
    "130956.712500",
    "130958.712500",
    "131000.712500",
    "131002.712500",
    "131004.712500",
    "131006.712500",
    "131008.712500",
    "131010.712500",
    "131012.712500",
    "131014.712500",
    "131016.712500",
    "131018.712500",
    "131020.712500",
    "131022.712500",
    "131024.712500",
    "131026.712500",
    "131028.712500",
    "131030.712500",
    "131032.712500",
    "131034.712500",
    "131036.712500",
    "131038.712500",
    "131040.712500",
    "131042.712500",
    "131044.712500",
    "131046.712500",
    "131048.712500",
    "131050.712500",
    "131052.712500",
    "131054.712500",
    "131056.712500",
    "131058.712500",
    "131100.712500",
    "131102.712500",
    "131104.712500",
    "131106.712500",
    "131108.712500",
    "131110.712500",
    "131112.712500",
    "131114.712500",
    "131116.712500",
    "131118.712500",
    "131120.712500",
    "131122.712500",
    "131124.712500",
    "131126.712500",
    "131128.712500",
    "131130.712500",
    "131132.712500",
    "131134.712500",
    "131136.712500",
    "131138.712500",
    "131140.712500",
    "131142.712500",
    "131144.712500",
    "131146.712500",
    "131148.712500",
    "131150.712500",
    "131152.712500",
    "131154.712500",
    "131156.712500",
    "131158.712500",
    "131200.712500",
    "131202.712500",
    "131204.712500",
    "131206.712500"
   ],
   "ContentTime": [
    "130711.626000",
    "130713.121000",
    "130715.121000",
    "130717.121000",
    "130719.121000",
    "130721.122000",
    "130723.122000",
    "130725.120000",
    "130727.121000",
    "130729.121000",
    "130731.122000",
    "130733.121000",
    "130735.122000",
    "130737.122000",
    "130739.122000",
    "130741.121000",
    "130743.121000",
    "130745.123000",
    "130747.122000",
    "130749.121000",
    "130751.121000",
    "130753.122000",
    "130755.122000",
    "130757.122000",
    "130759.121000",
    "130801.121000",
    "130803.121000",
    "130805.122000",
    "130807.122000",
    "130809.122000",
    "130811.121000",
    "130813.122000",
    "130815.121000",
    "130817.120000",
    "130819.121000",
    "130821.122000",
    "130823.122000",
    "130825.121000",
    "130827.122000",
    "130829.121000",
    "130831.122000",
    "130833.122000",
    "130835.121000",
    "130837.122000",
    "130839.121000",
    "130841.122000",
    "130843.122000",
    "130845.122000",
    "130847.121000",
    "130849.121000",
    "130851.121000",
    "130853.120000",
    "130855.122000",
    "130857.122000",
    "130859.122000",
    "130901.121000",
    "130903.122000",
    "130905.122000",
    "130907.121000",
    "130909.121000",
    "130911.122000",
    "130913.121000",
    "130915.121000",
    "130917.121000",
    "130919.122000",
    "130921.121000",
    "130923.122000",
    "130925.122000",
    "130927.121000",
    "130929.121000",
    "130931.122000",
    "130933.122000",
    "130935.122000",
    "130937.122000",
    "130939.121000",
    "130941.122000",
    "130943.122000",
    "130945.121000",
    "130947.122000",
    "130949.121000",
    "130951.122000",
    "130953.122000",
    "130955.122000",
    "130957.121000",
    "130959.122000",
    "131001.122000",
    "131003.120000",
    "131005.122000",
    "131007.121000",
    "131009.121000",
    "131011.121000",
    "131013.122000",
    "131015.122000",
    "131017.122000",
    "131019.122000",
    "131021.122000",
    "131023.121000",
    "131025.121000",
    "131027.122000",
    "131029.122000",
    "131031.122000",
    "131033.122000",
    "131035.121000",
    "131037.120000",
    "131039.122000",
    "131041.121000",
    "131043.121000",
    "131045.122000",
    "131047.122000",
    "131049.122000",
    "131051.122000",
    "131053.122000",
    "131055.121000",
    "131057.121000",
    "131059.122000",
    "131101.122000",
    "131103.121000",
    "131105.122000",
    "131107.122000",
    "131109.122000",
    "131111.122000",
    "131113.120000",
    "131115.121000",
    "131117.122000",
    "131119.122000",
    "131121.122000",
    "131123.122000",
    "131125.122000",
    "131127.122000",
    "131129.121000",
    "131131.121000",
    "131133.121000",
    "131135.122000",
    "131137.122000",
    "131139.121000",
    "131141.122000",
    "131143.121000",
    "131145.122000",
    "131147.121000",
    "131149.122000",
    "131151.121000",
    "131153.122000",
    "131155.121000",
    "131157.122000",
    "131159.121000",
    "131201.121000",
    "131203.121000",
    "131205.121000",
    "131207.121000",
    "131208.781000"
   ],
   "InstanceCreationTime": [
    "130711.626000",
    "130713.121000",
    "130715.121000",
    "130717.121000",
    "130719.121000",
    "130721.122000",
    "130723.122000",
    "130725.120000",
    "130727.121000",
    "130729.121000",
    "130731.122000",
    "130733.121000",
    "130735.122000",
    "130737.122000",
    "130739.122000",
    "130741.121000",
    "130743.121000",
    "130745.123000",
    "130747.122000",
    "130749.121000",
    "130751.121000",
    "130753.122000",
    "130755.122000",
    "130757.122000",
    "130759.121000",
    "130801.121000",
    "130803.121000",
    "130805.122000",
    "130807.122000",
    "130809.122000",
    "130811.121000",
    "130813.122000",
    "130815.121000",
    "130817.120000",
    "130819.121000",
    "130821.122000",
    "130823.122000",
    "130825.121000",
    "130827.122000",
    "130829.121000",
    "130831.122000",
    "130833.122000",
    "130835.121000",
    "130837.122000",
    "130839.121000",
    "130841.122000",
    "130843.122000",
    "130845.122000",
    "130847.121000",
    "130849.121000",
    "130851.121000",
    "130853.120000",
    "130855.122000",
    "130857.122000",
    "130859.122000",
    "130901.121000",
    "130903.122000",
    "130905.122000",
    "130907.121000",
    "130909.121000",
    "130911.122000",
    "130913.121000",
    "130915.121000",
    "130917.121000",
    "130919.122000",
    "130921.121000",
    "130923.122000",
    "130925.122000",
    "130927.121000",
    "130929.121000",
    "130931.122000",
    "130933.122000",
    "130935.122000",
    "130937.122000",
    "130939.121000",
    "130941.122000",
    "130943.122000",
    "130945.121000",
    "130947.122000",
    "130949.121000",
    "130951.122000",
    "130953.122000",
    "130955.122000",
    "130957.121000",
    "130959.122000",
    "131001.122000",
    "131003.120000",
    "131005.122000",
    "131007.121000",
    "131009.121000",
    "131011.121000",
    "131013.122000",
    "131015.122000",
    "131017.122000",
    "131019.122000",
    "131021.122000",
    "131023.121000",
    "131025.121000",
    "131027.122000",
    "131029.122000",
    "131031.122000",
    "131033.122000",
    "131035.121000",
    "131037.120000",
    "131039.122000",
    "131041.121000",
    "131043.121000",
    "131045.122000",
    "131047.122000",
    "131049.122000",
    "131051.122000",
    "131053.122000",
    "131055.121000",
    "131057.121000",
    "131059.122000",
    "131101.122000",
    "131103.121000",
    "131105.122000",
    "131107.122000",
    "131109.122000",
    "131111.122000",
    "131113.120000",
    "131115.121000",
    "131117.122000",
    "131119.122000",
    "131121.122000",
    "131123.122000",
    "131125.122000",
    "131127.122000",
    "131129.121000",
    "131131.121000",
    "131133.121000",
    "131135.122000",
    "131137.122000",
    "131139.121000",
    "131141.122000",
    "131143.121000",
    "131145.122000",
    "131147.121000",
    "131149.122000",
    "131151.121000",
    "131153.122000",
    "131155.121000",
    "131157.122000",
    "131159.121000",
    "131201.121000",
    "131203.121000",
    "131205.121000",
    "131207.121000",
    "131208.781000"
   ],
   "InstanceNumber": [
    1,
    2,
    3,
    4,
    5,
    6,
    7,
    8,
    9,
    10,
    11,
    12,
    13,
    14,
    15,
    16,
    17,
    18,
    19,
    20,
    21,
    22,
    23,
    24,
    25,
    26,
    27,
    28,
    29,
    30,
    31,
    32,
    33,
    34,
    35,
    36,
    37,
    38,
    39,
    40,
    41,
    42,
    43,
    44,
    45,
    46,
    47,
    48,
    49,
    50,
    51,
    52,
    53,
    54,
    55,
    56,
    57,
    58,
    59,
    60,
    61,
    62,
    63,
    64,
    65,
    66,
    67,
    68,
    69,
    70,
    71,
    72,
    73,
    74,
    75,
    76,
    77,
    78,
    79,
    80,
    81,
    82,
    83,
    84,
    85,
    86,
    87,
    88,
    89,
    90,
    91,
    92,
    93,
    94,
    95,
    96,
    97,
    98,
    99,
    100,
    101,
    102,
    103,
    104,
    105,
    106,
    107,
    108,
    109,
    110,
    111,
    112,
    113,
    114,
    115,
    116,
    117,
    118,
    119,
    120,
    121,
    122,
    123,
    124,
    125,
    126,
    127,
    128,
    129,
    130,
    131,
    132,
    133,
    134,
    135,
    136,
    137,
    138,
    139,
    140,
    141,
    142,
    143,
    144,
    145,
    146,
    147,
    148,
    149,
    150
   ],
   "LargestImagePixelValue": [
    3207,
    3153,
    3094,
    3144,
    3093,
    3120,
    3140,
    3114,
    3168,
    3119,
    3148,
    3115,
    3111,
    3117,
    3082,
    3158,
    3178,
    3121,
    3135,
    3107,
    3063,
    3047,
    3106,
    3086,
    3115,
    3131,
    3080,
    3128,
    3165,
    3173,
    3149,
    3108,
    3106,
    3088,
    3121,
    3116,
    3124,
    3114,
    3078,
    3109,
    3168,
    3147,
    3144,
    3134,
    3138,
    3166,
    3148,
    3150,
    3168,
    3140,
    3096,
    3119,
    3136,
    3168,
    3121,
    3191,
    3080,
    3103,
    3140,
    3142,
    3133,
    3132,
    3196,
    3148,
    3175,
    3159,
    3105,
    3176,
    3112,
    3159,
    3107,
    3131,
    3137,
    3136,
    3136,
    3128,
    3134,
    3148,
    3202,
    3128,
    3131,
    3169,
    3152,
    3151,
    3146,
    3105,
    3088,
    3142,
    3157,
    3148,
    3168,
    3128,
    3131,
    3139,
    3060,
    3134,
    3062,
    3154,
    3085,
    3181,
    3164,
    3157,
    3195,
    3206,
    3200,
    3211,
    3143,
    3185,
    3233,
    3230,
    3165,
    3127,
    3145,
    3170,
    3160,
    3205,
    3141,
    3176,
    3194,
    3122,
    3171,
    3153,
    3123,
    3128,
    3076,
    3135,
    3136,
    3124,
    3160,
    3192,
    3232,
    3229,
    3156,
    3157,
    3149,
    3122,
    3191,
    3258,
    3176,
    3207,
    3196,
    3204,
    3242,
    3222,
    3136,
    3099,
    3106,
    3167,
    3090,
    3095
   ],
   "WindowCenter": [
    789.0,
    788.0,
    786.0,
    787.0,
    787.0,
    787.0,
    788.0,
    788.0,
    788.0,
    787.0,
    787.0,
    787.0,
    788.0,
    788.0,
    788.0,
    788.0,
    788.0,
    788.0,
    786.0,
    785.0,
    784.0,
    785.0,
    787.0,
    787.0,
    787.0,
    787.0,
    786.0,
    787.0,
    787.0,
    787.0,
    787.0,
    785.0,
    785.0,
    785.0,
    786.0,
    786.0,
    786.0,
    785.0,
    784.0,
    784.0,
    785.0,
    784.0,
    784.0,
    784.0,
    785.0,
    785.0,
    784.0,
    785.0,
    785.0,
    785.0,
    784.0,
    785.0,
    785.0,
    786.0,
    786.0,
    787.0,
    786.0,
    786.0,
    786.0,
    785.0,
    786.0,
    786.0,
    787.0,
    787.0,
    787.0,
    785.0,
    785.0,
    786.0,
    786.0,
    785.0,
    785.0,
    786.0,
    787.0,
    786.0,
    785.0,
    784.0,
    784.0,
    785.0,
    786.0,
    785.0,
    785.0,
    785.0,
    785.0,
    785.0,
    785.0,
    784.0,
    784.0,
    784.0,
    785.0,
    786.0,
    787.0,
    786.0,
    785.0,
    784.0,
    784.0,
    785.0,
    785.0,
    786.0,
    786.0,
    787.0,
    787.0,
    786.0,
    786.0,
    786.0,
    785.0,
    785.0,
    786.0,
    789.0,
    789.0,
    787.0,
    785.0,
    785.0,
    785.0,
    786.0,
    787.0,
    787.0,
    786.0,
    786.0,
    785.0,
    785.0,
    785.0,
    785.0,
    785.0,
    785.0,
    784.0,
    783.0,
    784.0,
    784.0,
    785.0,
    786.0,
    787.0,
    788.0,
    785.0,
    785.0,
    786.0,
    786.0,
    787.0,
    786.0,
    785.0,
    786.0,
    787.0,
    787.0,
    788.0,
    787.0,
    786.0,
    786.0,
    786.0,
    786.0,
    784.0,
    784.0
   ],
   "WindowWidth": [
    1700.0,
    1695.0,
    1692.0,
    1693.0,
    1694.0,
    1694.0,
    1696.0,
    1696.0,
    1697.0,
    1695.0,
    1695.0,
    1695.0,
    1697.0,
    1698.0,
    1698.0,
    1697.0,
    1698.0,
    1695.0,
    1692.0,
    1688.0,
    1687.0,
    1689.0,
    1694.0,
    1694.0,
    1694.0,
    1694.0,
    1692.0,
    1693.0,
    1694.0,
    1695.0,
    1694.0,
    1690.0,
    1690.0,
    1689.0,
    1692.0,
    1693.0,
    1692.0,
    1688.0,
    1686.0,
    1687.0,
    1689.0,
    1687.0,
    1685.0,
    1686.0,
    1688.0,
    1688.0,
    1687.0,
    1689.0,
    1690.0,
    1689.0,
    1686.0,
    1688.0,
    1689.0,
    1691.0,
    1692.0,
    1694.0,
    1691.0,
    1690.0,
    1691.0,
    1690.0,
    1691.0,
    1692.0,
    1694.0,
    1694.0,
    1693.0,
    1690.0,
    1689.0,
    1692.0,
    1690.0,
    1689.0,
    1688.0,
    1691.0,
    1693.0,
    1691.0,
    1689.0,
    1687.0,
    1687.0,
    1689.0,
    1691.0,
    1689.0,
    1689.0,
    1687.0,
    1688.0,
    1689.0,
    1689.0,
    1686.0,
    1685.0,
    1687.0,
    1688.0,
    1692.0,
    1694.0,
    1691.0,
    1689.0,
    1687.0,
    1686.0,
    1689.0,
    1690.0,
    1692.0,
    1691.0,
    1693.0,
    1693.0,
    1692.0,
    1693.0,
    1691.0,
    1689.0,
    1690.0,
    1691.0,
    1698.0,
    1699.0,
    1693.0,
    1688.0,
    1688.0,
    1689.0,
    1691.0,
    1693.0,
    1693.0,
    1691.0,
    1691.0,
    1689.0,
    1690.0,
    1690.0,
    1689.0,
    1689.0,
    1687.0,
    1685.0,
    1684.0,
    1685.0,
    1685.0,
    1688.0,
    1692.0,
    1695.0,
    1695.0,
    1689.0,
    1689.0,
    1690.0,
    1691.0,
    1692.0,
    1692.0,
    1689.0,
    1690.0,
    1693.0,
    1694.0,
    1696.0,
    1694.0,
    1690.0,
    1690.0,
    1692.0,
    1691.0,
    1686.0,
    1686.0
   ]
  },
  "slices": {}
 }
}