{
  "AcquisitionMatrixPE": 100,
  "AcquisitionNumber": 1,
  "AcquisitionTime": "14:45:10.022500",
  "BandwidthPerPixelPhaseEncode": 18.519,
  "BaseResolution": 100,
  "BodyPartExamined": "BRAIN",
  "ConsistencyInfo": "N4_VE11C_LATEST_20160120",
  "ConversionSoftware": "dcm2niix",
  "ConversionSoftwareVersion": "v1.0.20180622 GCC4.9.2",
  "DerivedVendorReportedEchoSpacing": 0.000539986,
  "DeviceSerialNumber": "166078",
  "DwellTime": 2.1e-06,
  "EchoTime": 0.034,
  "EchoTrainLength": 100,
  "EffectiveEchoSpacing": 0.000539986,
  "FlipAngle": 90,
  "ImageOrientationPatientDICOM": [0.998376, -0.0339378, 0.0457578, 0.0383538, 0.994312, -0.0993649],
  "ImageType": [
    "ORIGINAL",
    "PRIMARY",
    "M",
    "ND",
    "MOSAIC"
],
  "InPlanePhaseEncodingDirectionDICOM": "COL",
  "InstitutionAddress": "Street_StreetNo_Bei_Jing_District_CN_ZIP",
  "InstitutionName": "BeiJing_Normal_University",
  "InstitutionalDepartmentName": "Department",
  "MRAcquisitionType": "2D",
  "MagneticFieldStrength": 3,
  "Manufacturer": "Siemens",
  "ManufacturersModelName": "Prisma",
  "Modality": "MR",
  "MultibandAccelerationFactor": 3,
  "PartialFourier": 1,
  "PatientPosition": "HFS",
  "PercentPhaseFOV": 100,
  "PhaseEncodingDirection": "j-",
  "PhaseEncodingSteps": 100,
  "PhaseResolution": 1,
  "PixelBandwidth": 2380,
  "ProcedureStepDescription": "BNU_P2018_64CH_Zhen.ZongLei",
  "ProtocolName": "bold_100x100_s3_2x2x2_static_256",
  "PulseSequenceDetails": "%SiemensSeq%_ep2d_bold",
  "ReceiveCoilActiveElements": "HC1-7;NC1",
  "ReceiveCoilName": "HeadNeck_64",
  "ReconMatrixPE": 100,
  "RepetitionTime": 2,
  "SAR": 0.0737135,
  "ScanOptions": "FS",
  "ScanningSequence": "EP",
  "SequenceName": "_epfid2d1_100",
  "SequenceVariant": "SK",
  "SeriesDescription": "bold_100x100_s3_2x2x2_static_256",
  "SeriesNumber": 15,
  "ShimSetting": [-5441, -11486, -1282, 282, 60, -141, -174, 68],
  "SliceThickness": 2,
  "SliceTiming": [1.485, 0, 0.99, 0.0825, 1.0725, 0.165, 1.155, 0.2475, 1.2375, 0.33, 1.32, 0.4125, 1.4025, 0.5775, 1.5675, 0.66, 1.65, 0.7425, 1.7325, 0.825, 1.815, 0.9075, 1.8975, 0.495, 1.485, 0, 0.99, 0.0825, 1.0725, 0.165, 1.155, 0.2475, 1.2375, 0.33, 1.32, 0.4125, 1.4025, 0.5775, 1.5675, 0.66, 1.65, 0.7425, 1.7325, 0.825, 1.815, 0.9075, 1.8975, 0.495, 1.485, 0, 0.99, 0.0825, 1.0725, 0.165, 1.155, 0.2475, 1.2375, 0.33, 1.32, 0.4125, 1.4025, 0.5775, 1.5675, 0.66, 1.65, 0.7425, 1.7325, 0.825, 1.815, 0.9075, 1.8975, 0.495],
  "SoftwareVersions": "syngo_MR_E11",
  "SpacingBetweenSlices": 2,
  "StationName": "AWP166078",
  "TaskName": "naturalvision",
  "TotalReadoutTime": 0.0534586,
  "TxRefAmp": 229.058,
  "dcmmeta_affine": [
    [-1.9967517852783203, 0.07670750468969345, 0.0842505618929863, 95.02921295166016],
    [0.06787559390068054, 1.9886232614517212, -0.20191700756549835, -90.43597412109375],
    [0.09151559323072433, 0.19872979819774628, 1.9879968166351318, -75.90318298339844],
    [0.0, 0.0, 0.0, 1.0]
],
  "dcmmeta_reorient_transform": [
    [0.0, -1.0, 0.0, 99.0],
    [1.0, 0.0, 0.0, 0.0],
    [0.0, 0.0, 1.0, 0.0],
    [0.0, 0.0, 0.0, 1.0]
],
  "dcmmeta_shape": [100, 100, 72, 256],
  "dcmmeta_slice_dim": 2,
  "dcmmeta_version": 0.6,
  "global": {
    "const": {
      "AcquisitionMatrix": [100, 0, 0, 100],
      "AngioFlag": "N",
      "BitsAllocated": 16,
      "BitsStored": 12,
      "BodyPartExamined": "BRAIN",
      "Columns": 900,
      "EchoNumbers": 1,
      "EchoTime": 34.0,
      "EchoTrainLength": 100,
      "FlipAngle": 90.0,
      "HighBit": 11,
      "ImageOrientationPatient": [0.99837590619063, -0.0339377951438, 0.04575779713695, 0.03835375329078, 0.99431162421185, -0.0993649010753],
      "ImagePositionPatient": [-932.00698051772, -874.73678719522, -13.343248026532],
      "ImageType": [
        "ORIGINAL",
        "PRIMARY",
        "M",
        "ND",
        "MOSAIC"
],
      "ImagedNucleus": "1H",
      "ImagingFrequency": 123.257764,
      "InPlanePhaseEncodingDirection": "COL",
      "MRAcquisitionType": "2D",
      "MagneticFieldStrength": 3.0,
      "Manufacturer": "SIEMENS",
      "ManufacturerModelName": "Prisma",
      "Modality": "MR",
      "NumberOfAverages": 1.0,
      "NumberOfPhaseEncodingSteps": 100,
      "PercentPhaseFieldOfView": 100.0,
      "PercentSampling": 100.0,
      "PerformedProcedureStepStartTime": "130256.437000",
      "PhotometricInterpretation": "MONOCHROME2",
      "PixelBandwidth": 2380.0,
      "PixelRepresentation": 0,
      "PixelSpacing": [2.0, 2.0],
      "ProtocolName": "bold_100x100_s3_2x2x2_static_256",
      "RepetitionTime": 2000.0,
      "Rows": 900,
      "SAR": 0.07371350160457,
      "SamplesPerPixel": 1,
      "ScanOptions": "FS",
      "ScanningSequence": "EP",
      "SequenceName": "*epfid2d1_100",
      "SequenceVariant": "SK",
      "SeriesDescription": "bold_100x100_s3_2x2x2_static_256",
      "SeriesNumber": 15,
      "SeriesTime": "144512.587000",
      "SliceLocation": -62.314228191848,
      "SliceThickness": 2.0,
      "SmallestImagePixelValue": 0,
      "SoftwareVersions": "syngo MR E11",
      "SpacingBetweenSlices": 1.9999999390425,
      "SpecificCharacterSet": "ISO_IR 100",
      "StudyID": "1",
      "StudyTime": "130256.355000",
      "TransmitCoilName": "Body",
      "VariableFlipAngleFlag": "N",
      "WindowCenterWidthExplanation": "Algo1",
      "dBdt": 0.0},
    "slices": {}
  },
  "time": {
    "samples": {
      "AcquisitionNumber": [1, 2, 3, 4, 5, 6, 7, 8, 9, 10, 11, 12, 13, 14, 15, 16, 17, 18, 19, 20, 21, 22, 23, 24, 25, 26, 27, 28, 29, 30, 31, 32, 33, 34, 35, 36, 37, 38, 39, 40, 41, 42, 43, 44, 45, 46, 47, 48, 49, 50, 51, 52, 53, 54, 55, 56, 57, 58, 59, 60, 61, 62, 63, 64, 65, 66, 67, 68, 69, 70, 71, 72, 73, 74, 75, 76, 77, 78, 79, 80, 81, 82, 83, 84, 85, 86, 87, 88, 89, 90, 91, 92, 93, 94, 95, 96, 97, 98, 99, 100, 101, 102, 103, 104, 105, 106, 107, 108, 109, 110, 111, 112, 113, 114, 115, 116, 117, 118, 119, 120, 121, 122, 123, 124, 125, 126, 127, 128, 129, 130, 131, 132, 133, 134, 135, 136, 137, 138, 139, 140, 141, 142, 143, 144, 145, 146, 147, 148, 149, 150, 151, 152, 153, 154, 155, 156, 157, 158, 159, 160, 161, 162, 163, 164, 165, 166, 167, 168, 169, 170, 171, 172, 173, 174, 175, 176, 177, 178, 179, 180, 181, 182, 183, 184, 185, 186, 187, 188, 189, 190, 191, 192, 193, 194, 195, 196, 197, 198, 199, 200, 201, 202, 203, 204, 205, 206, 207, 208, 209, 210, 211, 212, 213, 214, 215, 216, 217, 218, 219, 220, 221, 222, 223, 224, 225, 226, 227, 228, 229, 230, 231, 232, 233, 234, 235, 236, 237, 238, 239, 240, 241, 242, 243, 244, 245, 246, 247, 248, 249, 250, 251, 252, 253, 254, 255, 256],
      "AcquisitionTime": ["144510.022500", "144512.022500", "144514.022500", "144516.022500", "144518.022500", "144520.022500", "144522.022500", "144524.022500", "144526.022500", "144528.022500", "144530.022500", "144532.022500", "144534.022500", "144536.022500", "144538.022500", "144540.022500", "144542.022500", "144544.022500", "144546.022500", "144548.022500", "144550.022500", "144552.022500", "144554.022500", "144556.022500", "144558.022500", "144600.022500", "144602.022500", "144604.022500", "144606.022500", "144608.022500", "144610.022500", "144612.022500", "144614.022500", "144616.022500", "144618.022500", "144620.022500", "144622.022500", "144624.022500", "144626.022500", "144628.022500", "144630.022500", "144632.022500", "144634.022500", "144636.022500", "144638.022500", "144640.022500", "144642.022500", "144644.022500", "144646.022500", "144648.022500", "144650.022500", "144652.022500", "144654.022500", "144656.022500", "144658.022500", "144700.022500", "144702.022500", "144704.022500", "144706.022500", "144708.022500", "144710.022500", "144712.022500", "144714.022500", "144716.022500", "144718.022500", "144720.022500", "144722.022500", "144724.022500", "144726.022500", "144728.022500", "144730.022500", "144732.022500", "144734.022500", "144736.022500", "144738.022500", "144740.022500", "144742.022500", "144744.022500", "144746.022500", "144748.022500", "144750.022500", "144752.022500", "144754.022500", "144756.022500", "144758.022500", "144800.022500", "144802.022500", "144804.022500", "144806.022500", "144808.022500", "144810.022500", "144812.022500", "144814.022500", "144816.022500", "144818.022500", "144820.022500", "144822.022500", "144824.022500", "144826.022500", "144828.022500", "144830.022500", "144832.022500", "144834.022500", "144836.022500", "144838.022500", "144840.022500", "144842.022500", "144844.022500", "144846.022500", "144848.022500", "144850.022500", "144852.022500", "144854.022500", "144856.022500", "144858.022500", "144900.022500", "144902.022500", "144904.022500", "144906.022500", "144908.022500", "144910.022500", "144912.022500", "144914.022500", "144916.022500", "144918.022500", "144920.022500", "144922.022500", "144924.022500", "144926.022500", "144928.022500", "144930.022500", "144932.022500", "144934.022500", "144936.022500", "144938.022500", "144940.022500", "144942.022500", "144944.022500", "144946.022500", "144948.022500", "144950.022500", "144952.022500", "144954.022500", "144956.022500", "144958.022500", "145000.022500", "145002.022500", "145004.022500", "145006.022500", "145008.022500", "145010.022500", "145012.022500", "145014.022500", "145016.022500", "145018.022500", "145020.022500", "145022.022500", "145024.022500", "145026.022500", "145028.022500", "145030.022500", "145032.022500", "145034.022500", "145036.022500", "145038.022500", "145040.022500", "145042.022500", "145044.022500", "145046.022500", "145048.022500", "145050.022500", "145052.022500", "145054.022500", "145056.022500", "145058.022500", "145100.022500", "145102.022500", "145104.022500", "145106.022500", "145108.022500", "145110.022500", "145112.022500", "145114.022500", "145116.022500", "145118.022500", "145120.022500", "145122.022500", "145124.022500", "145126.022500", "145128.022500", "145130.022500", "145132.022500", "145134.022500", "145136.022500", "145138.022500", "145140.022500", "145142.022500", "145144.022500", "145146.022500", "145148.022500", "145150.022500", "145152.022500", "145154.022500", "145156.022500", "145158.022500", "145200.022500", "145202.022500", "145204.022500", "145206.022500", "145208.022500", "145210.022500", "145212.022500", "145214.022500", "145216.022500", "145218.022500", "145220.022500", "145222.022500", "145224.022500", "145226.022500", "145228.022500", "145230.022500", "145232.022500", "145234.022500", "145236.022500", "145238.022500", "145240.022500", "145242.022500", "145244.022500", "145246.022500", "145248.022500", "145250.022500", "145252.022500", "145254.022500", "145256.022500", "145258.022500", "145300.022500", "145302.022500", "145304.022500", "145306.022500", "145308.022500", "145310.022500", "145312.022500", "145314.022500", "145316.022500", "145318.022500", "145320.022500", "145322.022500", "145324.022500", "145326.022500", "145328.022500", "145330.022500", "145332.022500", "145334.022500", "145336.022500", "145338.022500", "145340.022500"],
      "ContentTime": ["144512.591000", "144514.086000", "144516.085000", "144518.085000", "144520.086000", "144522.087000", "144524.086000", "144526.087000", "144528.086000", "144530.086000", "144532.086000", "144534.085000", "144536.085000", "144537.586000", "144540.086000", "144542.086000", "144544.087000", "144546.087000", "144548.086000", "144550.086000", "144552.085000", "144553.586000", "144556.086000", "144558.087000", "144600.087000", "144601.586000", "144604.086000", "144606.086000", "144608.086000", "144610.086000", "144612.085000", "144614.087000", "144616.086000", "144617.586000", "144620.087000", "144622.087000", "144624.086000", "144626.085000", "144627.585000", "144629.585000", "144632.087000", "144634.087000", "144636.086000", "144637.587000", "144640.087000", "144642.087000", "144644.086000", "144646.086000", "144647.586000", "144650.086000", "144651.586000", "144654.087000", "144656.087000", "144658.086000", "144700.086000", "144702.085000", "144704.086000", "144705.587000", "144708.087000", "144710.086000", "144712.086000", "144714.086000", "144716.086000", "144717.586000", "144720.086000", "144722.086000", "144724.087000", "144726.086000", "144728.086000", "144730.086000", "144731.586000", "144734.087000", "144735.586000", "144737.585000", "144740.087000", "144742.087000", "144744.086000", "144745.586000", "144748.087000", "144750.086000", "144752.086000", "144754.085000", "144756.085000", "144758.086000", "144800.086000", "144802.086000", "144804.086000", "144806.086000", "144808.087000", "144810.087000", "144812.085000", "144814.086000", "144816.087000", "144818.087000", "144820.086000", "144822.086000", "144824.086000", "144826.087000", "144828.086000", "144830.086000", "144832.085000", "144833.586000", "144836.086000", "144838.086000", "144840.087000", "144842.087000", "144844.086000", "144846.085000", "144848.085000", "144849.585000", "144852.087000", "144854.086000", "144856.087000", "144858.086000", "144900.087000", "144902.087000", "144904.087000", "144906.085000", "144908.086000", "144910.087000", "144912.086000", "144914.087000", "144916.087000", "144918.087000", "144920.086000", "144922.086000", "144924.085000", "144926.086000", "144927.587000", "144930.086000", "144932.086000", "144934.086000", "144936.086000", "144938.086000", "144940.085000", "144942.086000", "144944.086000", "144946.087000", "144948.087000", "144950.087000", "144952.087000", "144954.087000", "144956.085000", "144958.086000", "144959.585000", "145002.087000", "145004.087000", "145006.087000", "145008.086000", "145010.087000", "145012.087000", "145014.086000", "145016.085000", "145018.087000", "145020.087000", "145021.586000", "145024.086000", "145026.086000", "145027.586000", "145030.086000", "145032.086000", "145033.585000", "145036.087000", "145038.087000", "145040.087000", "145042.087000", "145044.087000", "145046.086000", "145048.086000", "145050.086000", "145052.085000", "145054.087000", "145056.086000", "145057.586000", "145100.087000", "145102.086000", "145104.087000", "145106.086000", "145107.586000", "145110.086000", "145112.086000", "145114.087000", "145116.086000", "145118.087000", "145120.086000", "145122.086000", "145124.086000", "145126.086000", "145128.087000", "145129.587000", "145131.586000", "145134.086000", "145136.086000", "145137.586000", "145140.087000", "145142.086000", "145144.086000", "145145.586000", "145148.087000", "145150.087000", "145152.086000", "145154.086000", "145156.087000", "145158.085000", "145200.085000", "145202.086000", "145204.086000", "145206.087000", "145208.086000", "145210.087000", "145212.086000", "145214.086000", "145216.086000", "145218.086000", "145220.087000", "145222.087000", "145224.087000", "145226.086000", "145228.086000", "145230.087000", "145232.087000", "145233.586000", "145236.085000", "145238.087000", "145240.086000", "145242.086000", "145244.086000", "145246.086000", "145248.087000", "145249.587000", "145252.086000", "145254.086000", "145256.086000", "145258.087000", "145259.587000", "145301.586000", "145304.086000", "145305.586000", "145308.086000", "145310.085000", "145312.086000", "145314.087000", "145316.099000", "145318.087000", "145320.086000", "145322.086000", "145323.586000", "145326.085000", "145328.086000", "145330.087000", "145332.087000", "145334.087000", "145336.086000", "145338.087000", "145340.086000", "145341.621000"],
      "InstanceCreationTime": ["144512.591000", "144514.086000", "144516.085000", "144518.085000", "144520.086000", "144522.087000", "144524.086000", "144526.087000", "144528.086000", "144530.086000", "144532.086000", "144534.085000", "144536.085000", "144537.586000", "144540.086000", "144542.086000", "144544.087000", "144546.087000", "144548.086000", "144550.086000", "144552.085000", "144553.586000", "144556.086000", "144558.087000", "144600.087000", "144601.586000", "144604.086000", "144606.086000", "144608.086000", "144610.086000", "144612.085000", "144614.087000", "144616.086000", "144617.586000", "144620.087000", "144622.087000", "144624.086000", "144626.085000", "144627.585000", "144629.585000", "144632.087000", "144634.087000", "144636.086000", "144637.587000", "144640.087000", "144642.087000", "144644.086000", "144646.086000", "144647.586000", "144650.086000", "144651.586000", "144654.087000", "144656.087000", "144658.086000", "144700.086000", "144702.085000", "144704.086000", "144705.587000", "144708.087000", "144710.086000", "144712.086000", "144714.086000", "144716.086000", "144717.586000", "144720.086000", "144722.086000", "144724.087000", "144726.086000", "144728.086000", "144730.086000", "144731.586000", "144734.087000", "144735.586000", "144737.585000", "144740.087000", "144742.087000", "144744.086000", "144745.586000", "144748.087000", "144750.086000", "144752.086000", "144754.085000", "144756.085000", "144758.086000", "144800.086000", "144802.086000", "144804.086000", "144806.086000", "144808.087000", "144810.087000", "144812.085000", "144814.086000", "144816.087000", "144818.087000", "144820.086000", "144822.086000", "144824.086000", "144826.087000", "144828.086000", "144830.086000", "144832.085000", "144833.586000", "144836.086000", "144838.086000", "144840.087000", "144842.087000", "144844.086000", "144846.085000", "144848.085000", "144849.585000", "144852.087000", "144854.086000", "144856.087000", "144858.086000", "144900.087000", "144902.087000", "144904.087000", "144906.085000", "144908.086000", "144910.087000", "144912.086000", "144914.087000", "144916.087000", "144918.087000", "144920.086000", "144922.086000", "144924.085000", "144926.086000", "144927.587000", "144930.086000", "144932.086000", "144934.086000", "144936.086000", "144938.086000", "144940.085000", "144942.086000", "144944.086000", "144946.087000", "144948.087000", "144950.087000", "144952.087000", "144954.087000", "144956.085000", "144958.086000", "144959.585000", "145002.087000", "145004.087000", "145006.087000", "145008.086000", "145010.087000", "145012.087000", "145014.086000", "145016.085000", "145018.087000", "145020.087000", "145021.586000", "145024.086000", "145026.086000", "145027.586000", "145030.086000", "145032.086000", "145033.585000", "145036.087000", "145038.087000", "145040.087000", "145042.087000", "145044.087000", "145046.086000", "145048.086000", "145050.086000", "145052.085000", "145054.087000", "145056.086000", "145057.586000", "145100.087000", "145102.086000", "145104.087000", "145106.086000", "145107.586000", "145110.086000", "145112.086000", "145114.087000", "145116.086000", "145118.087000", "145120.086000", "145122.086000", "145124.086000", "145126.086000", "145128.087000", "145129.587000", "145131.586000", "145134.086000", "145136.086000", "145137.586000", "145140.087000", "145142.086000", "145144.086000", "145145.586000", "145148.087000", "145150.087000", "145152.086000", "145154.086000", "145156.087000", "145158.085000", "145200.085000", "145202.086000", "145204.086000", "145206.087000", "145208.086000", "145210.087000", "145212.086000", "145214.086000", "145216.086000", "145218.086000", "145220.087000", "145222.087000", "145224.087000", "145226.086000", "145228.086000", "145230.087000", "145232.087000", "145233.586000", "145236.085000", "145238.087000", "145240.086000", "145242.086000", "145244.086000", "145246.086000", "145248.087000", "145249.587000", "145252.086000", "145254.086000", "145256.086000", "145258.087000", "145259.587000", "145301.586000", "145304.086000", "145305.586000", "145308.086000", "145310.085000", "145312.086000", "145314.087000", "145316.099000", "145318.087000", "145320.086000", "145322.086000", "145323.586000", "145326.085000", "145328.086000", "145330.087000", "145332.087000", "145334.087000", "145336.086000", "145338.087000", "145340.086000", "145341.621000"],
      "InstanceNumber": [1, 2, 3, 4, 5, 6, 7, 8, 9, 10, 11, 12, 13, 14, 15, 16, 17, 18, 19, 20, 21, 22, 23, 24, 25, 26, 27, 28, 29, 30, 31, 32, 33, 34, 35, 36, 37, 38, 39, 40, 41, 42, 43, 44, 45, 46, 47, 48, 49, 50, 51, 52, 53, 54, 55, 56, 57, 58, 59, 60, 61, 62, 63, 64, 65, 66, 67, 68, 69, 70, 71, 72, 73, 74, 75, 76, 77, 78, 79, 80, 81, 82, 83, 84, 85, 86, 87, 88, 89, 90, 91, 92, 93, 94, 95, 96, 97, 98, 99, 100, 101, 102, 103, 104, 105, 106, 107, 108, 109, 110, 111, 112, 113, 114, 115, 116, 117, 118, 119, 120, 121, 122, 123, 124, 125, 126, 127, 128, 129, 130, 131, 132, 133, 134, 135, 136, 137, 138, 139, 140, 141, 142, 143, 144, 145, 146, 147, 148, 149, 150, 151, 152, 153, 154, 155, 156, 157, 158, 159, 160, 161, 162, 163, 164, 165, 166, 167, 168, 169, 170, 171, 172, 173, 174, 175, 176, 177, 178, 179, 180, 181, 182, 183, 184, 185, 186, 187, 188, 189, 190, 191, 192, 193, 194, 195, 196, 197, 198, 199, 200, 201, 202, 203, 204, 205, 206, 207, 208, 209, 210, 211, 212, 213, 214, 215, 216, 217, 218, 219, 220, 221, 222, 223, 224, 225, 226, 227, 228, 229, 230, 231, 232, 233, 234, 235, 236, 237, 238, 239, 240, 241, 242, 243, 244, 245, 246, 247, 248, 249, 250, 251, 252, 253, 254, 255, 256],
      "LargestImagePixelValue": [3476, 3447, 3370, 3488, 3378, 3436, 3368, 3399, 3384, 3416, 3411, 3337, 3402, 3394, 3429, 3397, 3402, 3404, 3393, 3339, 3364, 3334, 3334, 3353, 3387, 3383, 3384, 3382, 3380, 3377, 3353, 3394, 3393, 3381, 3390, 3379, 3392, 3350, 3410, 3406, 3402, 3363, 3382, 3377, 3322, 3402, 3375, 3402, 3367, 3394, 3404, 3404, 3371, 3388, 3395, 3376, 3389, 3391, 3369, 3391, 3397, 3395, 3409, 3399, 3390, 3420, 3432, 3406, 3358, 3377, 3359, 3409, 3412, 3397, 3394, 3360, 3425, 3427, 3399, 3321, 3633, 3484, 3415, 3482, 3388, 3442, 3395, 3394, 3455, 3383, 3409, 3404, 3380, 3393, 3426, 3407, 3416, 3370, 3402, 3405, 3408, 3398, 3415, 3417, 3391, 3383, 3399, 3345, 3421, 3436, 3452, 3419, 3409, 3398, 3426, 3378, 3353, 3391, 3431, 3437, 3450, 3367, 3456, 3437, 3416, 3371, 3451, 3443, 3409, 3424, 3394, 3431, 3423, 3441, 3405, 3376, 3374, 3386, 3439, 3402, 3390, 3398, 3416, 3367, 3341, 3399, 3410, 3380, 3315, 3343, 3392, 3421, 3431, 3405, 3376, 3381, 3381, 3351, 3391, 3431, 3426, 3398, 3335, 3338, 3383, 3386, 3414, 3443, 3393, 3440, 3453, 3377, 3390, 3392, 3405, 3390, 3389, 3395, 3336, 3430, 3393, 3401, 3390, 3353, 3358, 3372, 3411, 3392, 3376, 3367, 3392, 3442, 3408, 3326, 3332, 3404, 3438, 3392, 3389, 3406, 3402, 3425, 3380, 3451, 3396, 3338, 3404, 3374, 3392, 3396, 3302, 3403, 3391, 3400, 3370, 3440, 3370, 3336, 3356, 3411, 3391, 3329, 3404, 3367, 3387, 3370, 3350, 3426, 3448, 3423, 3400, 3458, 3370, 3419, 3387, 3355, 3398, 3412, 3381, 3363, 3369, 3328, 3439, 3412, 3379, 3383, 3307, 3402, 3371, 3386, 3370, 3391, 3389, 3356, 3382, 3278],
      "WindowCenter": [797.0, 794.0, 793.0, 793.0, 792.0, 793.0, 793.0, 793.0, 793.0, 793.0, 794.0, 794.0, 794.0, 792.0, 792.0, 791.0, 790.0, 789.0, 790.0, 790.0, 791.0, 792.0, 792.0, 792.0, 792.0, 792.0, 792.0, 792.0, 792.0, 792.0, 792.0, 792.0, 792.0, 792.0, 792.0, 793.0, 793.0, 793.0, 793.0, 793.0, 793.0, 792.0, 792.0, 792.0, 792.0, 793.0, 793.0, 793.0, 792.0, 791.0, 792.0, 792.0, 791.0, 791.0, 791.0, 791.0, 791.0, 792.0, 792.0, 792.0, 792.0, 791.0, 791.0, 790.0, 791.0, 793.0, 794.0, 795.0, 795.0, 794.0, 793.0, 794.0, 795.0, 795.0, 795.0, 794.0, 794.0, 792.0, 791.0, 791.0, 794.0, 795.0, 793.0, 792.0, 792.0, 792.0, 793.0, 793.0, 794.0, 792.0, 792.0, 792.0, 792.0, 793.0, 793.0, 793.0, 794.0, 793.0, 793.0, 794.0, 794.0, 794.0, 794.0, 794.0, 796.0, 797.0, 799.0, 796.0, 794.0, 793.0, 792.0, 791.0, 790.0, 790.0, 792.0, 793.0, 793.0, 793.0, 792.0, 793.0, 793.0, 792.0, 793.0, 793.0, 793.0, 793.0, 793.0, 793.0, 793.0, 794.0, 795.0, 795.0, 794.0, 795.0, 795.0, 794.0, 792.0, 790.0, 790.0, 791.0, 792.0, 793.0, 792.0, 791.0, 791.0, 792.0, 792.0, 793.0, 795.0, 794.0, 793.0, 792.0, 792.0, 792.0, 793.0, 793.0, 793.0, 793.0, 793.0, 793.0, 793.0, 793.0, 794.0, 795.0, 794.0, 793.0, 792.0, 792.0, 791.0, 791.0, 792.0, 792.0, 793.0, 793.0, 793.0, 793.0, 794.0, 794.0, 795.0, 797.0, 795.0, 793.0, 794.0, 794.0, 797.0, 797.0, 795.0, 794.0, 794.0, 793.0, 792.0, 791.0, 790.0, 790.0, 791.0, 791.0, 792.0, 792.0, 793.0, 793.0, 792.0, 791.0, 791.0, 793.0, 794.0, 794.0, 793.0, 792.0, 792.0, 792.0, 791.0, 791.0, 791.0, 791.0, 792.0, 794.0, 794.0, 794.0, 794.0, 793.0, 792.0, 792.0, 795.0, 796.0, 796.0, 795.0, 795.0, 793.0, 792.0, 791.0, 791.0, 792.0, 792.0, 794.0, 794.0, 792.0, 791.0, 791.0, 792.0, 793.0, 793.0, 792.0, 793.0, 793.0, 793.0, 793.0, 793.0, 793.0, 792.0, 792.0, 793.0, 794.0, 793.0, 794.0, 795.0, 791.0],
      "WindowWidth": [1703.0, 1696.0, 1692.0, 1692.0, 1689.0, 1692.0, 1692.0, 1693.0, 1692.0, 1693.0, 1695.0, 1696.0, 1695.0, 1691.0, 1689.0, 1687.0, 1686.0, 1684.0, 1686.0, 1687.0, 1689.0, 1690.0, 1690.0, 1690.0, 1690.0, 1690.0, 1691.0, 1691.0, 1690.0, 1690.0, 1689.0, 1689.0, 1691.0, 1690.0, 1691.0, 1692.0, 1692.0, 1692.0, 1694.0, 1693.0, 1693.0, 1690.0, 1689.0, 1689.0, 1689.0, 1691.0, 1692.0, 1693.0, 1690.0, 1689.0, 1690.0, 1690.0, 1689.0, 1687.0, 1688.0, 1688.0, 1689.0, 1691.0, 1690.0, 1690.0, 1690.0, 1689.0, 1687.0, 1686.0, 1688.0, 1693.0, 1696.0, 1699.0, 1698.0, 1694.0, 1692.0, 1695.0, 1697.0, 1699.0, 1698.0, 1696.0, 1695.0, 1690.0, 1689.0, 1687.0, 1696.0, 1698.0, 1693.0, 1691.0, 1689.0, 1690.0, 1692.0, 1693.0, 1695.0, 1691.0, 1690.0, 1690.0, 1691.0, 1694.0, 1694.0, 1694.0, 1695.0, 1693.0, 1693.0, 1694.0, 1694.0, 1695.0, 1694.0, 1695.0, 1699.0, 1703.0, 1707.0, 1700.0, 1695.0, 1692.0, 1689.0, 1686.0, 1684.0, 1685.0, 1690.0, 1693.0, 1693.0, 1692.0, 1691.0, 1691.0, 1693.0, 1691.0, 1693.0, 1693.0, 1693.0, 1692.0, 1694.0, 1694.0, 1693.0, 1695.0, 1698.0, 1697.0, 1695.0, 1697.0, 1697.0, 1696.0, 1690.0, 1686.0, 1686.0, 1687.0, 1691.0, 1691.0, 1690.0, 1687.0, 1687.0, 1689.0, 1689.0, 1693.0, 1697.0, 1695.0, 1692.0, 1689.0, 1689.0, 1690.0, 1692.0, 1692.0, 1691.0, 1691.0, 1692.0, 1692.0, 1693.0, 1693.0, 1694.0, 1697.0, 1695.0, 1691.0, 1690.0, 1689.0, 1686.0, 1687.0, 1688.0, 1691.0, 1693.0, 1692.0, 1692.0, 1693.0, 1694.0, 1695.0, 1697.0, 1702.0, 1698.0, 1693.0, 1693.0, 1696.0, 1703.0, 1703.0, 1696.0, 1695.0, 1695.0, 1691.0, 1689.0, 1687.0, 1685.0, 1683.0, 1686.0, 1688.0, 1690.0, 1689.0, 1692.0, 1693.0, 1690.0, 1688.0, 1686.0, 1691.0, 1696.0, 1695.0, 1693.0, 1689.0, 1690.0, 1689.0, 1688.0, 1688.0, 1687.0, 1688.0, 1691.0, 1694.0, 1695.0, 1696.0, 1695.0, 1692.0, 1689.0, 1690.0, 1698.0, 1699.0, 1701.0, 1699.0, 1698.0, 1692.0, 1689.0, 1687.0, 1687.0, 1689.0, 1691.0, 1695.0, 1693.0, 1690.0, 1688.0, 1687.0, 1689.0, 1691.0, 1691.0, 1689.0, 1692.0, 1693.0, 1693.0, 1694.0, 1693.0, 1693.0, 1690.0, 1690.0, 1692.0, 1694.0, 1693.0, 1694.0, 1696.0, 1687.0]
    },
    "slices": {}
  }
}