{
 "AcquisitionMatrixPE": 100,
 "AcquisitionNumber": 1,
 "AcquisitionTime": "14:26:1.020000",
 "BandwidthPerPixelPhaseEncode": 18.519,
 "BaseResolution": 100,
 "BodyPartExamined": "BRAIN",
 "ConsistencyInfo": "N4_VE11C_LATEST_20160120",
 "ConversionSoftware": "dcm2niix",
 "ConversionSoftwareVersion": "v1.0.20180622 GCC4.9.2",
 "DerivedVendorReportedEchoSpacing": 0.000539986,
 "DeviceSerialNumber": "166078",
 "DwellTime": 2.1e-06,
 "EchoTime": 0.034,
 "EchoTrainLength": 100,
 "EffectiveEchoSpacing": 0.000539986,
 "FlipAngle": 90,
 "ImageOrientationPatientDICOM": [
  0.998376,
  -0.0339378,
  0.0457578,
  0.0383538,
  0.994312,
  -0.0993649
 ],
 "ImageType": [
  "ORIGINAL",
  "PRIMARY",
  "M",
  "ND",
  "MOSAIC"
 ],
 "InPlanePhaseEncodingDirectionDICOM": "COL",
 "InstitutionAddress": "Street_StreetNo_Bei_Jing_District_CN_ZIP",
 "InstitutionName": "BeiJing_Normal_University",
 "InstitutionalDepartmentName": "Department",
 "MRAcquisitionType": "2D",
 "MagneticFieldStrength": 3,
 "Manufacturer": "Siemens",
 "ManufacturersModelName": "Prisma",
 "Modality": "MR",
 "MultibandAccelerationFactor": 3,
 "PartialFourier": 1,
 "PatientPosition": "HFS",
 "PercentPhaseFOV": 100,
 "PhaseEncodingDirection": "j-",
 "PhaseEncodingSteps": 100,
 "PhaseResolution": 1,
 "PixelBandwidth": 2380,
 "ProcedureStepDescription": "BNU_P2018_64CH_Zhen.ZongLei",
 "ProtocolName": "bold_100x100_s3_2x2x2_static_256",
 "PulseSequenceDetails": "%SiemensSeq%_ep2d_bold",
 "ReceiveCoilActiveElements": "HC1-7;NC1",
 "ReceiveCoilName": "HeadNeck_64",
 "ReconMatrixPE": 100,
 "RepetitionTime": 2,
 "SAR": 0.0737135,
 "ScanOptions": "FS",
 "ScanningSequence": "EP",
 "SequenceName": "_epfid2d1_100",
 "SequenceVariant": "SK",
 "SeriesDescription": "bold_100x100_s3_2x2x2_static_256",
 "SeriesNumber": 13,
 "ShimSetting": [
  -5441,
  -11486,
  -1282,
  282,
  60,
  -141,
  -174,
  68
 ],
 "SliceThickness": 2,
 "SliceTiming": [
  1.485,
  0,
  0.99,
  0.0825,
  1.0725,
  0.165,
  1.155,
  0.2475,
  1.2375,
  0.33,
  1.32,
  0.4125,
  1.4025,
  0.5775,
  1.5675,
  0.66,
  1.65,
  0.7425,
  1.7325,
  0.825,
  1.815,
  0.9075,
  1.8975,
  0.495,
  1.485,
  0,
  0.99,
  0.0825,
  1.0725,
  0.165,
  1.155,
  0.2475,
  1.2375,
  0.33,
  1.32,
  0.4125,
  1.4025,
  0.5775,
  1.5675,
  0.66,
  1.65,
  0.7425,
  1.7325,
  0.825,
  1.815,
  0.9075,
  1.8975,
  0.495,
  1.485,
  0,
  0.99,
  0.0825,
  1.0725,
  0.165,
  1.155,
  0.2475,
  1.2375,
  0.33,
  1.32,
  0.4125,
  1.4025,
  0.5775,
  1.5675,
  0.66,
  1.65,
  0.7425,
  1.7325,
  0.825,
  1.815,
  0.9075,
  1.8975,
  0.495
 ],
 "SoftwareVersions": "syngo_MR_E11",
 "SpacingBetweenSlices": 2,
 "StationName": "AWP166078",
 "TaskName": "imagenet",
 "TotalReadoutTime": 0.0534586,
 "TxRefAmp": 229.058,
 "dcmmeta_affine": [
  [
   -1.9967517852783203,
   0.07670750468969345,
   0.0842505618929863,
   95.02921295166016
  ],
  [
   0.06787559390068054,
   1.9886232614517212,
   -0.20191700756549835,
   -90.43597412109375
  ],
  [
   0.09151559323072433,
   0.19872979819774628,
   1.9879968166351318,
   -75.90318298339844
  ],
  [
   0.0,
   0.0,
   0.0,
   1.0
  ]
 ],
 "dcmmeta_reorient_transform": [
  [
   0.0,
   -1.0,
   0.0,
   99.0
  ],
  [
   1.0,
   0.0,
   0.0,
   0.0
  ],
  [
   0.0,
   0.0,
   1.0,
   0.0
  ],
  [
   0.0,
   0.0,
   0.0,
   1.0
  ]
 ],
 "dcmmeta_shape": [
  100,
  100,
  72,
  256
 ],
 "dcmmeta_slice_dim": 2,
 "dcmmeta_version": 0.6,
 "global": {
  "const": {
   "AcquisitionMatrix": [
    100,
    0,
    0,
    100
   ],
   "AngioFlag": "N",
   "BitsAllocated": 16,
   "BitsStored": 12,
   "BodyPartExamined": "BRAIN",
   "Columns": 900,
   "EchoNumbers": 1,
   "EchoTime": 34.0,
   "EchoTrainLength": 100,
   "FlipAngle": 90.0,
   "HighBit": 11,
   "ImageOrientationPatient": [
    0.99837590619063,
    -0.0339377951438,
    0.04575779713695,
    0.03835375329078,
    0.99431162421185,
    -0.0993649010753
   ],
   "ImagePositionPatient": [
    -932.00698051772,
    -874.73678719522,
    -13.343248026532
   ],
   "ImageType": [
    "ORIGINAL",
    "PRIMARY",
    "M",
    "ND",
    "MOSAIC"
   ],
   "ImagedNucleus": "1H",
   "ImagingFrequency": 123.257763,
   "InPlanePhaseEncodingDirection": "COL",
   "MRAcquisitionType": "2D",
   "MagneticFieldStrength": 3.0,
   "Manufacturer": "SIEMENS",
   "ManufacturerModelName": "Prisma",
   "Modality": "MR",
   "NumberOfAverages": 1.0,
   "NumberOfPhaseEncodingSteps": 100,
   "PercentPhaseFieldOfView": 100.0,
   "PercentSampling": 100.0,
   "PerformedProcedureStepStartTime": "130256.437000",
   "PhotometricInterpretation": "MONOCHROME2",
   "PixelBandwidth": 2380.0,
   "PixelRepresentation": 0,
   "PixelSpacing": [
    2.0,
    2.0
   ],
   "ProtocolName": "bold_100x100_s3_2x2x2_static_256",
   "RepetitionTime": 2000.0,
   "Rows": 900,
   "SAR": 0.07371350160457,
   "SamplesPerPixel": 1,
   "ScanOptions": "FS",
   "ScanningSequence": "EP",
   "SequenceName": "*epfid2d1_100",
   "SequenceVariant": "SK",
   "SeriesDescription": "bold_100x100_s3_2x2x2_static_256",
   "SeriesNumber": 13,
   "SeriesTime": "142603.342000",
   "SliceLocation": -62.314228191848,
   "SliceThickness": 2.0,
   "SmallestImagePixelValue": 0,
   "SoftwareVersions": "syngo MR E11",
   "SpacingBetweenSlices": 1.9999999390425,
   "SpecificCharacterSet": "ISO_IR 100",
   "StudyID": "1",
   "StudyTime": "130256.355000",
   "TransmitCoilName": "Body",
   "VariableFlipAngleFlag": "N",
   "WindowCenterWidthExplanation": "Algo1",
   "dBdt": 0.0
  },
  "slices": {}
 },
 "time": {
  "samples": {
   "AcquisitionNumber": [
    1,
    2,
    3,
    4,
    5,
    6,
    7,
    8,
    9,
    10,
    11,
    12,
    13,
    14,
    15,
    16,
    17,
    18,
    19,
    20,
    21,
    22,
    23,
    24,
    25,
    26,
    27,
    28,
    29,
    30,
    31,
    32,
    33,
    34,
    35,
    36,
    37,
    38,
    39,
    40,
    41,
    42,
    43,
    44,
    45,
    46,
    47,
    48,
    49,
    50,
    51,
    52,
    53,
    54,
    55,
    56,
    57,
    58,
    59,
    60,
    61,
    62,
    63,
    64,
    65,
    66,
    67,
    68,
    69,
    70,
    71,
    72,
    73,
    74,
    75,
    76,
    77,
    78,
    79,
    80,
    81,
    82,
    83,
    84,
    85,
    86,
    87,
    88,
    89,
    90,
    91,
    92,
    93,
    94,
    95,
    96,
    97,
    98,
    99,
    100,
    101,
    102,
    103,
    104,
    105,
    106,
    107,
    108,
    109,
    110,
    111,
    112,
    113,
    114,
    115,
    116,
    117,
    118,
    119,
    120,
    121,
    122,
    123,
    124,
    125,
    126,
    127,
    128,
    129,
    130,
    131,
    132,
    133,
    134,
    135,
    136,
    137,
    138,
    139,
    140,
    141,
    142,
    143,
    144,
    145,
    146,
    147,
    148,
    149,
    150,
    151,
    152,
    153,
    154,
    155,
    156,
    157,
    158,
    159,
    160,
    161,
    162,
    163,
    164,
    165,
    166,
    167,
    168,
    169,
    170,
    171,
    172,
    173,
    174,
    175,
    176,
    177,
    178,
    179,
    180,
    181,
    182,
    183,
    184,
    185,
    186,
    187,
    188,
    189,
    190,
    191,
    192,
    193,
    194,
    195,
    196,
    197,
    198,
    199,
    200,
    201,
    202,
    203,
    204,
    205,
    206,
    207,
    208,
    209,
    210,
    211,
    212,
    213,
    214,
    215,
    216,
    217,
    218,
    219,
    220,
    221,
    222,
    223,
    224,
    225,
    226,
    227,
    228,
    229,
    230,
    231,
    232,
    233,
    234,
    235,
    236,
    237,
    238,
    239,
    240,
    241,
    242,
    243,
    244,
    245,
    246,
    247,
    248,
    249,
    250,
    251,
    252,
    253,
    254,
    255,
    256
   ],
   "AcquisitionTime": [
    "142601.020000",
    "142603.020000",
    "142605.020000",
    "142607.020000",
    "142609.020000",
    "142611.020000",
    "142613.020000",
    "142615.020000",
    "142617.020000",
    "142619.020000",
    "142621.020000",
    "142623.020000",
    "142625.020000",
    "142627.020000",
    "142629.020000",
    "142631.020000",
    "142633.020000",
    "142635.020000",
    "142637.020000",
    "142639.020000",
    "142641.020000",
    "142643.020000",
    "142645.020000",
    "142647.020000",
    "142649.020000",
    "142651.020000",
    "142653.020000",
    "142655.020000",
    "142657.020000",
    "142659.020000",
    "142701.020000",
    "142703.020000",
    "142705.020000",
    "142707.020000",
    "142709.020000",
    "142711.020000",
    "142713.020000",
    "142715.020000",
    "142717.020000",
    "142719.020000",
    "142721.020000",
    "142723.020000",
    "142725.020000",
    "142727.020000",
    "142729.020000",
    "142731.020000",
    "142733.020000",
    "142735.020000",
    "142737.020000",
    "142739.020000",
    "142741.020000",
    "142743.020000",
    "142745.020000",
    "142747.020000",
    "142749.020000",
    "142751.020000",
    "142753.020000",
    "142755.020000",
    "142757.020000",
    "142759.020000",
    "142801.020000",
    "142803.020000",
    "142805.020000",
    "142807.020000",
    "142809.020000",
    "142811.020000",
    "142813.020000",
    "142815.020000",
    "142817.020000",
    "142819.020000",
    "142821.020000",
    "142823.020000",
    "142825.020000",
    "142827.020000",
    "142829.020000",
    "142831.020000",
    "142833.020000",
    "142835.020000",
    "142837.020000",
    "142839.020000",
    "142841.020000",
    "142843.020000",
    "142845.020000",
    "142847.020000",
    "142849.020000",
    "142851.020000",
    "142853.020000",
    "142855.020000",
    "142857.020000",
    "142859.020000",
    "142901.020000",
    "142903.020000",
    "142905.020000",
    "142907.020000",
    "142909.020000",
    "142911.020000",
    "142913.020000",
    "142915.020000",
    "142917.020000",
    "142919.020000",
    "142921.020000",
    "142923.020000",
    "142925.020000",
    "142927.020000",
    "142929.020000",
    "142931.020000",
    "142933.020000",
    "142935.020000",
    "142937.020000",
    "142939.020000",
    "142941.020000",
    "142943.020000",
    "142945.020000",
    "142947.020000",
    "142949.020000",
    "142951.020000",
    "142953.020000",
    "142955.020000",
    "142957.020000",
    "142959.020000",
    "143001.020000",
    "143003.020000",
    "143005.020000",
    "143007.020000",
    "143009.020000",
    "143011.020000",
    "143013.020000",
    "143015.020000",
    "143017.020000",
    "143019.020000",
    "143021.020000",
    "143023.020000",
    "143025.020000",
    "143027.020000",
    "143029.020000",
    "143031.020000",
    "143033.020000",
    "143035.020000",
    "143037.020000",
    "143039.020000",
    "143041.020000",
    "143043.020000",
    "143045.020000",
    "143047.020000",
    "143049.020000",
    "143051.020000",
    "143053.020000",
    "143055.020000",
    "143057.020000",
    "143059.020000",
    "143101.020000",
    "143103.020000",
    "143105.020000",
    "143107.020000",
    "143109.020000",
    "143111.020000",
    "143113.020000",
    "143115.020000",
    "143117.020000",
    "143119.020000",
    "143121.020000",
    "143123.020000",
    "143125.020000",
    "143127.020000",
    "143129.020000",
    "143131.020000",
    "143133.020000",
    "143135.020000",
    "143137.020000",
    "143139.020000",
    "143141.020000",
    "143143.020000",
    "143145.020000",
    "143147.020000",
    "143149.020000",
    "143151.020000",
    "143153.020000",
    "143155.020000",
    "143157.020000",
    "143159.020000",
    "143201.020000",
    "143203.020000",
    "143205.020000",
    "143207.020000",
    "143209.020000",
    "143211.020000",
    "143213.020000",
    "143215.020000",
    "143217.020000",
    "143219.020000",
    "143221.020000",
    "143223.020000",
    "143225.020000",
    "143227.020000",
    "143229.020000",
    "143231.020000",
    "143233.020000",
    "143235.020000",
    "143237.020000",
    "143239.020000",
    "143241.020000",
    "143243.020000",
    "143245.020000",
    "143247.020000",
    "143249.020000",
    "143251.020000",
    "143253.020000",
    "143255.020000",
    "143257.020000",
    "143259.020000",
    "143301.020000",
    "143303.020000",
    "143305.020000",
    "143307.020000",
    "143309.020000",
    "143311.020000",
    "143313.020000",
    "143315.020000",
    "143317.020000",
    "143319.020000",
    "143321.020000",
    "143323.020000",
    "143325.020000",
    "143327.020000",
    "143329.020000",
    "143331.020000",
    "143333.020000",
    "143335.020000",
    "143337.020000",
    "143339.020000",
    "143341.020000",
    "143343.020000",
    "143345.020000",
    "143347.020000",
    "143349.020000",
    "143351.020000",
    "143353.020000",
    "143355.020000",
    "143357.020000",
    "143359.020000",
    "143401.020000",
    "143403.020000",
    "143405.020000",
    "143407.020000",
    "143409.020000",
    "143411.020000",
    "143413.020000",
    "143415.020000",
    "143417.020000",
    "143419.020000",
    "143421.020000",
    "143423.020000",
    "143425.020000",
    "143427.020000",
    "143429.020000",
    "143431.020000"
   ],
   "ContentTime": [
    "142603.346000",
    "142604.341000",
    "142606.843000",
    "142608.342000",
    "142610.841000",
    "142612.341000",
    "142614.341000",
    "142616.841000",
    "142618.342000",
    "142620.842000",
    "142622.841000",
    "142624.841000",
    "142626.342000",
    "142628.342000",
    "142630.842000",
    "142632.341000",
    "142634.842000",
    "142636.341000",
    "142638.341000",
    "142640.841000",
    "142642.342000",
    "142644.342000",
    "142646.842000",
    "142648.341000",
    "142650.842000",
    "142652.362000",
    "142654.341000",
    "142656.341000",
    "142658.341000",
    "142700.341000",
    "142702.341000",
    "142704.841000",
    "142706.341000",
    "142708.841000",
    "142710.842000",
    "142712.841000",
    "142714.342000",
    "142716.343000",
    "142718.341000",
    "142720.341000",
    "142722.841000",
    "142724.342000",
    "142726.342000",
    "142728.341000",
    "142730.342000",
    "142732.341000",
    "142734.842000",
    "142736.341000",
    "142738.841000",
    "142740.341000",
    "142742.341000",
    "142744.342000",
    "142746.341000",
    "142748.841000",
    "142750.842000",
    "142752.341000",
    "142754.842000",
    "142756.842000",
    "142758.842000",
    "142800.342000",
    "142802.842000",
    "142804.341000",
    "142806.342000",
    "142808.361000",
    "142810.342000",
    "142812.342000",
    "142814.342000",
    "142816.342000",
    "142818.842000",
    "142820.841000",
    "142822.842000",
    "142824.341000",
    "142826.842000",
    "142828.342000",
    "142830.841000",
    "142832.842000",
    "142834.341000",
    "142836.342000",
    "142838.342000",
    "142840.341000",
    "142842.841000",
    "142844.842000",
    "142846.842000",
    "142848.341000",
    "142850.842000",
    "142852.841000",
    "142854.841000",
    "142856.341000",
    "142858.342000",
    "142900.342000",
    "142902.842000",
    "142904.842000",
    "142906.842000",
    "142908.842000",
    "142910.341000",
    "142912.341000",
    "142914.342000",
    "142916.341000",
    "142918.342000",
    "142920.841000",
    "142922.842000",
    "142924.842000",
    "142926.842000",
    "142928.341000",
    "142930.341000",
    "142932.342000",
    "142934.842000",
    "142936.843000",
    "142938.842000",
    "142940.841000",
    "142942.341000",
    "142944.341000",
    "142946.341000",
    "142948.342000",
    "142950.842000",
    "142952.842000",
    "142954.842000",
    "142956.341000",
    "142958.341000",
    "143000.341000",
    "143002.341000",
    "143004.342000",
    "143006.841000",
    "143008.341000",
    "143010.342000",
    "143012.841000",
    "143014.341000",
    "143016.341000",
    "143018.842000",
    "143020.341000",
    "143022.342000",
    "143024.341000",
    "143026.841000",
    "143028.342000",
    "143030.842000",
    "143032.841000",
    "143034.841000",
    "143036.341000",
    "143038.341000",
    "143040.841000",
    "143042.842000",
    "143044.842000",
    "143046.342000",
    "143048.341000",
    "143050.842000",
    "143052.841000",
    "143054.841000",
    "143056.841000",
    "143058.841000",
    "143100.342000",
    "143102.341000",
    "143104.841000",
    "143106.342000",
    "143108.341000",
    "143110.842000",
    "143112.342000",
    "143114.842000",
    "143116.342000",
    "143118.342000",
    "143120.341000",
    "143122.841000",
    "143124.842000",
    "143126.841000",
    "143128.842000",
    "143130.342000",
    "143132.342000",
    "143134.341000",
    "143136.842000",
    "143138.843000",
    "143140.342000",
    "143142.841000",
    "143144.341000",
    "143146.841000",
    "143148.341000",
    "143150.342000",
    "143152.842000",
    "143154.842000",
    "143156.342000",
    "143158.342000",
    "143200.341000",
    "143202.341000",
    "143204.341000",
    "143206.841000",
    "143208.341000",
    "143210.341000",
    "143212.841000",
    "143214.842000",
    "143216.354000",
    "143218.842000",
    "143220.841000",
    "143222.341000",
    "143224.342000",
    "143226.342000",
    "143228.842000",
    "143230.843000",
    "143232.842000",
    "143234.842000",
    "143236.342000",
    "143238.841000",
    "143240.841000",
    "143242.341000",
    "143244.842000",
    "143246.342000",
    "143248.343000",
    "143250.341000",
    "143252.341000",
    "143254.341000",
    "143256.841000",
    "143258.341000",
    "143300.842000",
    "143302.841000",
    "143304.341000",
    "143306.842000",
    "143308.842000",
    "143310.342000",
    "143312.841000",
    "143314.842000",
    "143316.341000",
    "143318.842000",
    "143320.342000",
    "143322.342000",
    "143324.342000",
    "143326.842000",
    "143328.842000",
    "143330.841000",
    "143332.841000",
    "143334.841000",
    "143336.341000",
    "143338.842000",
    "143340.341000",
    "143342.842000",
    "143344.842000",
    "143346.342000",
    "143348.842000",
    "143350.841000",
    "143352.361000",
    "143354.342000",
    "143356.341000",
    "143358.343000",
    "143400.362000",
    "143402.342000",
    "143404.842000",
    "143406.841000",
    "143408.842000",
    "143410.842000",
    "143412.842000",
    "143414.342000",
    "143416.343000",
    "143418.341000",
    "143420.341000",
    "143422.341000",
    "143424.842000",
    "143426.841000",
    "143428.841000",
    "143430.842000",
    "143432.399000"
   ],
   "InstanceCreationTime": [
    "142603.346000",
    "142604.341000",
    "142606.843000",
    "142608.342000",
    "142610.841000",
    "142612.341000",
    "142614.341000",
    "142616.841000",
    "142618.342000",
    "142620.842000",
    "142622.841000",
    "142624.841000",
    "142626.342000",
    "142628.342000",
    "142630.842000",
    "142632.341000",
    "142634.842000",
    "142636.341000",
    "142638.341000",
    "142640.841000",
    "142642.342000",
    "142644.342000",
    "142646.842000",
    "142648.341000",
    "142650.842000",
    "142652.362000",
    "142654.341000",
    "142656.341000",
    "142658.341000",
    "142700.341000",
    "142702.341000",
    "142704.841000",
    "142706.341000",
    "142708.841000",
    "142710.842000",
    "142712.841000",
    "142714.342000",
    "142716.343000",
    "142718.341000",
    "142720.341000",
    "142722.841000",
    "142724.342000",
    "142726.342000",
    "142728.341000",
    "142730.342000",
    "142732.341000",
    "142734.842000",
    "142736.341000",
    "142738.841000",
    "142740.341000",
    "142742.341000",
    "142744.342000",
    "142746.341000",
    "142748.841000",
    "142750.842000",
    "142752.341000",
    "142754.842000",
    "142756.842000",
    "142758.842000",
    "142800.342000",
    "142802.842000",
    "142804.341000",
    "142806.342000",
    "142808.361000",
    "142810.342000",
    "142812.342000",
    "142814.342000",
    "142816.342000",
    "142818.842000",
    "142820.841000",
    "142822.842000",
    "142824.341000",
    "142826.842000",
    "142828.342000",
    "142830.841000",
    "142832.842000",
    "142834.341000",
    "142836.342000",
    "142838.342000",
    "142840.341000",
    "142842.841000",
    "142844.842000",
    "142846.842000",
    "142848.341000",
    "142850.842000",
    "142852.841000",
    "142854.841000",
    "142856.341000",
    "142858.342000",
    "142900.342000",
    "142902.842000",
    "142904.842000",
    "142906.842000",
    "142908.842000",
    "142910.341000",
    "142912.341000",
    "142914.342000",
    "142916.341000",
    "142918.342000",
    "142920.841000",
    "142922.842000",
    "142924.842000",
    "142926.842000",
    "142928.341000",
    "142930.341000",
    "142932.342000",
    "142934.842000",
    "142936.843000",
    "142938.842000",
    "142940.841000",
    "142942.341000",
    "142944.341000",
    "142946.341000",
    "142948.342000",
    "142950.842000",
    "142952.842000",
    "142954.842000",
    "142956.341000",
    "142958.341000",
    "143000.341000",
    "143002.341000",
    "143004.342000",
    "143006.841000",
    "143008.341000",
    "143010.342000",
    "143012.841000",
    "143014.341000",
    "143016.341000",
    "143018.842000",
    "143020.341000",
    "143022.342000",
    "143024.341000",
    "143026.841000",
    "143028.342000",
    "143030.842000",
    "143032.841000",
    "143034.841000",
    "143036.341000",
    "143038.341000",
    "143040.841000",
    "143042.842000",
    "143044.842000",
    "143046.342000",
    "143048.341000",
    "143050.842000",
    "143052.841000",
    "143054.841000",
    "143056.841000",
    "143058.841000",
    "143100.342000",
    "143102.341000",
    "143104.841000",
    "143106.342000",
    "143108.341000",
    "143110.842000",
    "143112.342000",
    "143114.842000",
    "143116.342000",
    "143118.342000",
    "143120.341000",
    "143122.841000",
    "143124.842000",
    "143126.841000",
    "143128.842000",
    "143130.342000",
    "143132.342000",
    "143134.341000",
    "143136.842000",
    "143138.843000",
    "143140.342000",
    "143142.841000",
    "143144.341000",
    "143146.841000",
    "143148.341000",
    "143150.342000",
    "143152.842000",
    "143154.842000",
    "143156.342000",
    "143158.342000",
    "143200.341000",
    "143202.341000",
    "143204.341000",
    "143206.841000",
    "143208.341000",
    "143210.341000",
    "143212.841000",
    "143214.842000",
    "143216.354000",
    "143218.842000",
    "143220.841000",
    "143222.341000",
    "143224.342000",
    "143226.342000",
    "143228.842000",
    "143230.843000",
    "143232.842000",
    "143234.842000",
    "143236.342000",
    "143238.841000",
    "143240.841000",
    "143242.341000",
    "143244.842000",
    "143246.342000",
    "143248.343000",
    "143250.341000",
    "143252.341000",
    "143254.341000",
    "143256.841000",
    "143258.341000",
    "143300.842000",
    "143302.841000",
    "143304.341000",
    "143306.842000",
    "143308.842000",
    "143310.342000",
    "143312.841000",
    "143314.842000",
    "143316.341000",
    "143318.842000",
    "143320.342000",
    "143322.342000",
    "143324.342000",
    "143326.842000",
    "143328.842000",
    "143330.841000",
    "143332.841000",
    "143334.841000",
    "143336.341000",
    "143338.842000",
    "143340.341000",
    "143342.842000",
    "143344.842000",
    "143346.342000",
    "143348.842000",
    "143350.841000",
    "143352.361000",
    "143354.342000",
    "143356.341000",
    "143358.343000",
    "143400.362000",
    "143402.342000",
    "143404.842000",
    "143406.841000",
    "143408.842000",
    "143410.842000",
    "143412.842000",
    "143414.342000",
    "143416.343000",
    "143418.341000",
    "143420.341000",
    "143422.341000",
    "143424.842000",
    "143426.841000",
    "143428.841000",
    "143430.842000",
    "143432.399000"
   ],
   "InstanceNumber": [
    1,
    2,
    3,
    4,
    5,
    6,
    7,
    8,
    9,
    10,
    11,
    12,
    13,
    14,
    15,
    16,
    17,
    18,
    19,
    20,
    21,
    22,
    23,
    24,
    25,
    26,
    27,
    28,
    29,
    30,
    31,
    32,
    33,
    34,
    35,
    36,
    37,
    38,
    39,
    40,
    41,
    42,
    43,
    44,
    45,
    46,
    47,
    48,
    49,
    50,
    51,
    52,
    53,
    54,
    55,
    56,
    57,
    58,
    59,
    60,
    61,
    62,
    63,
    64,
    65,
    66,
    67,
    68,
    69,
    70,
    71,
    72,
    73,
    74,
    75,
    76,
    77,
    78,
    79,
    80,
    81,
    82,
    83,
    84,
    85,
    86,
    87,
    88,
    89,
    90,
    91,
    92,
    93,
    94,
    95,
    96,
    97,
    98,
    99,
    100,
    101,
    102,
    103,
    104,
    105,
    106,
    107,
    108,
    109,
    110,
    111,
    112,
    113,
    114,
    115,
    116,
    117,
    118,
    119,
    120,
    121,
    122,
    123,
    124,
    125,
    126,
    127,
    128,
    129,
    130,
    131,
    132,
    133,
    134,
    135,
    136,
    137,
    138,
    139,
    140,
    141,
    142,
    143,
    144,
    145,
    146,
    147,
    148,
    149,
    150,
    151,
    152,
    153,
    154,
    155,
    156,
    157,
    158,
    159,
    160,
    161,
    162,
    163,
    164,
    165,
    166,
    167,
    168,
    169,
    170,
    171,
    172,
    173,
    174,
    175,
    176,
    177,
    178,
    179,
    180,
    181,
    182,
    183,
    184,
    185,
    186,
    187,
    188,
    189,
    190,
    191,
    192,
    193,
    194,
    195,
    196,
    197,
    198,
    199,
    200,
    201,
    202,
    203,
    204,
    205,
    206,
    207,
    208,
    209,
    210,
    211,
    212,
    213,
    214,
    215,
    216,
    217,
    218,
    219,
    220,
    221,
    222,
    223,
    224,
    225,
    226,
    227,
    228,
    229,
    230,
    231,
    232,
    233,
    234,
    235,
    236,
    237,
    238,
    239,
    240,
    241,
    242,
    243,
    244,
    245,
    246,
    247,
    248,
    249,
    250,
    251,
    252,
    253,
    254,
    255,
    256
   ],
   "LargestImagePixelValue": [
    3306,
    3264,
    3242,
    3226,
    3231,
    3294,
    3232,
    3270,
    3263,
    3264,
    3308,
    3266,
    3256,
    3241,
    3240,
    3236,
    3276,
    3246,
    3226,
    3246,
    3239,
    3281,
    3287,
    3263,
    3312,
    3232,
    3277,
    3254,
    3275,
    3269,
    3221,
    3277,
    3267,
    3262,
    3312,
    3286,
    3326,
    3242,
    3295,
    3261,
    3277,
    3338,
    3347,
    3298,
    3255,
    3266,
    3371,
    3316,
    3357,
    3323,
    3351,
    3329,
    3313,
    3300,
    3330,
    3356,
    3298,
    3326,
    3259,
    3296,
    3271,
    3270,
    3336,
    3307,
    3349,
    3344,
    3314,
    3367,
    3314,
    3281,
    3319,
    3299,
    3347,
    3327,
    3338,
    3279,
    3298,
    3261,
    3332,
    3240,
    3296,
    3317,
    3278,
    3322,
    3282,
    3362,
    3273,
    3331,
    3278,
    3325,
    3274,
    3326,
    3310,
    3315,
    3307,
    3267,
    3336,
    3302,
    3251,
    3301,
    3252,
    3308,
    3217,
    3277,
    3237,
    3220,
    3290,
    3249,
    3257,
    3289,
    3259,
    3344,
    3274,
    3416,
    3276,
    3314,
    3272,
    3371,
    3280,
    3333,
    3331,
    3279,
    3373,
    3286,
    3318,
    3311,
    3271,
    3398,
    3319,
    3406,
    3367,
    3399,
    3381,
    3388,
    3405,
    3367,
    3426,
    3383,
    3366,
    3429,
    3383,
    3408,
    3412,
    3385,
    3446,
    3406,
    3397,
    3434,
    3395,
    3425,
    3407,
    3389,
    3469,
    3433,
    3440,
    3451,
    3364,
    3484,
    3421,
    3460,
    3422,
    3407,
    3482,
    3433,
    3516,
    3473,
    3424,
    3434,
    3405,
    3454,
    3439,
    3412,
    3484,
    3433,
    3484,
    3455,
    3490,
    3431,
    3410,
    3463,
    3443,
    3403,
    3402,
    3402,
    3467,
    3419,
    3487,
    3454,
    3433,
    3442,
    3424,
    3455,
    3463,
    3468,
    3444,
    3438,
    3456,
    3419,
    3476,
    3430,
    3463,
    3427,
    3439,
    3463,
    3425,
    3464,
    3441,
    3438,
    3425,
    3424,
    3507,
    3426,
    3489,
    3472,
    3470,
    3441,
    3440,
    3472,
    3460,
    3494,
    3411,
    3406,
    3459,
    3468,
    3493,
    3445,
    3464,
    3458,
    3476,
    3461,
    3447,
    3452,
    3431,
    3444,
    3421,
    3442,
    3481,
    3506,
    3500,
    3473,
    3454,
    3482,
    3470,
    3466,
    3458,
    3447,
    3446,
    3432,
    3479,
    3472,
    3448,
    3441,
    3474,
    3513,
    3497,
    3477
   ],
   "WindowCenter": [
    790.0,
    789.0,
    789.0,
    789.0,
    790.0,
    791.0,
    791.0,
    791.0,
    789.0,
    789.0,
    790.0,
    791.0,
    792.0,
    793.0,
    794.0,
    794.0,
    793.0,
    791.0,
    792.0,
    793.0,
    792.0,
    791.0,
    790.0,
    791.0,
    791.0,
    790.0,
    791.0,
    792.0,
    793.0,
    792.0,
    790.0,
    790.0,
    790.0,
    791.0,
    791.0,
    790.0,
    790.0,
    790.0,
    792.0,
    792.0,
    790.0,
    789.0,
    789.0,
    789.0,
    788.0,
    790.0,
    792.0,
    792.0,
    792.0,
    791.0,
    791.0,
    791.0,
    792.0,
    792.0,
    791.0,
    791.0,
    790.0,
    792.0,
    793.0,
    796.0,
    795.0,
    794.0,
    792.0,
    790.0,
    790.0,
    789.0,
    790.0,
    791.0,
    791.0,
    790.0,
    790.0,
    790.0,
    790.0,
    787.0,
    789.0,
    789.0,
    789.0,
    789.0,
    790.0,
    789.0,
    788.0,
    789.0,
    789.0,
    789.0,
    787.0,
    787.0,
    787.0,
    788.0,
    789.0,
    790.0,
    791.0,
    791.0,
    790.0,
    790.0,
    791.0,
    791.0,
    792.0,
    791.0,
    791.0,
    791.0,
    790.0,
    790.0,
    789.0,
    789.0,
    787.0,
    787.0,
    788.0,
    789.0,
    791.0,
    791.0,
