{
 "AcquisitionMatrixPE": 100,
 "AcquisitionNumber": 1,
 "AcquisitionTime": "14:44:38.187500",
 "BandwidthPerPixelPhaseEncode": 18.519,
 "BaseResolution": 100,
 "BodyPartExamined": "BRAIN",
 "ConsistencyInfo": "N4_VE11C_LATEST_20160120",
 "ConversionSoftware": "dcm2niix",
 "ConversionSoftwareVersion": "v1.0.20180622 GCC4.9.2",
 "DerivedVendorReportedEchoSpacing": 0.000539986,
 "DeviceSerialNumber": "166078",
 "DwellTime": 2.1e-06,
 "EchoTime": 0.034,
 "EchoTrainLength": 100,
 "EffectiveEchoSpacing": 0.000539986,
 "FlipAngle": 90,
 "ImageOrientationPatientDICOM": [
  1,
  0,
  0,
  0,
  0.936672,
  -0.350207
 ],
 "ImageType": [
  "ORIGINAL",
  "PRIMARY",
  "M",
  "ND",
  "MOSAIC"
 ],
 "InPlanePhaseEncodingDirectionDICOM": "COL",
 "InstitutionAddress": "Street_StreetNo_Bei_Jing_District_CN_ZIP",
 "InstitutionName": "BeiJing_Normal_University",
 "InstitutionalDepartmentName": "Department",
 "MRAcquisitionType": "2D",
 "MagneticFieldStrength": 3,
 "Manufacturer": "Siemens",
 "ManufacturersModelName": "Prisma",
 "Modality": "MR",
 "MultibandAccelerationFactor": 3,
 "PartialFourier": 1,
 "PatientPosition": "HFS",
 "PercentPhaseFOV": 100,
 "PhaseEncodingDirection": "j-",
 "PhaseEncodingSteps": 100,
 "PhaseResolution": 1,
 "PixelBandwidth": 2380,
 "ProcedureStepDescription": "BNU_P2018_64CH_Zhen.ZongLei",
 "ProtocolName": "bold_100x100_s3_2x2x2_static_256",
 "PulseSequenceDetails": "%SiemensSeq%_ep2d_bold",
 "ReceiveCoilActiveElements": "HC1-7;NC1",
 "ReceiveCoilName": "HeadNeck_64",
 "ReconMatrixPE": 100,
 "RepetitionTime": 2,
 "SAR": 0.0622948,
 "ScanOptions": "FS",
 "ScanningSequence": "EP",
 "SequenceName": "_epfid2d1_100",
 "SequenceVariant": "SK",
 "SeriesDescription": "bold_100x100_s3_2x2x2_static_256",
 "SeriesNumber": 13,
 "ShimSetting": [
  -5458,
  -11444,
  -1235,
  356,
  -34,
  -283,
  -248,
  90
 ],
 "SliceThickness": 2,
 "SliceTiming": [
  1.485,
  0,
  0.99,
  0.0825,
  1.0725,
  0.165,
  1.155,
  0.2475,
  1.2375,
  0.33,
  1.32,
  0.4125,
  1.4025,
  0.5775,
  1.5675,
  0.66,
  1.65,
  0.7425,
  1.7325,
  0.825,
  1.815,
  0.9075,
  1.8975,
  0.495,
  1.485,
  0,
  0.99,
  0.0825,
  1.0725,
  0.165,
  1.155,
  0.2475,
  1.2375,
  0.33,
  1.32,
  0.4125,
  1.4025,
  0.5775,
  1.5675,
  0.66,
  1.65,
  0.7425,
  1.7325,
  0.825,
  1.815,
  0.9075,
  1.8975,
  0.495,
  1.485,
  0,
  0.99,
  0.0825,
  1.0725,
  0.165,
  1.155,
  0.2475,
  1.2375,
  0.33,
  1.32,
  0.4125,
  1.4025,
  0.5775,
  1.5675,
  0.66,
  1.65,
  0.7425,
  1.7325,
  0.825,
  1.815,
  0.9075,
  1.8975,
  0.495
 ],
 "SoftwareVersions": "syngo_MR_E11",
 "SpacingBetweenSlices": 2,
 "StationName": "AWP166078",
 "TaskName": "imagenet",
 "TotalReadoutTime": 0.0534586,
 "TxRefAmp": 218.393,
 "dcmmeta_affine": [
  [
   -2.0,
   0.0,
   0.0,
   101.3559341430664
  ],
  [
   0.0,
   1.8733443021774292,
   -0.7004148364067078,
   -69.34561157226562
  ],
  [
   0.0,
   0.7004148364067078,
   1.8733444213867188,
   -102.79984283447266
  ],
  [
   0.0,
   0.0,
   0.0,
   1.0
  ]
 ],
 "dcmmeta_reorient_transform": [
  [
   0.0,
   -1.0,
   0.0,
   99.0
  ],
  [
   1.0,
   0.0,
   0.0,
   0.0
  ],
  [
   0.0,
   0.0,
   1.0,
   0.0
  ],
  [
   0.0,
   0.0,
   0.0,
   1.0
  ]
 ],
 "dcmmeta_shape": [
  100,
  100,
  72,
  256
 ],
 "dcmmeta_slice_dim": 2,
 "dcmmeta_version": 0.6,
 "global": {
  "const": {
   "AcquisitionMatrix": [
    100,
    0,
    0,
    100
   ],
   "AngioFlag": "N",
   "BitsAllocated": 16,
   "BitsStored": 12,
   "BodyPartExamined": "BRAIN",
   "Columns": 900,
   "EchoNumbers": 1,
   "EchoTime": 34.0,
   "EchoTrainLength": 100,
   "FlipAngle": 90.0,
   "HighBit": 11,
   "ImageOrientationPatient": [
    1.0,
    0.0,
    0.0,
    0.0,
    0.93667217980175,
    -0.3502074065257
   ],
   "ImagePositionPatient": [
    -901.35593223572,
    -865.45322117521,
    246.70715079742
   ],
   "ImageType": [
    "ORIGINAL",
    "PRIMARY",
    "M",
    "ND",
    "MOSAIC"
   ],
   "ImagedNucleus": "1H",
   "ImagingFrequency": 123.257757,
   "InPlanePhaseEncodingDirection": "COL",
   "LargestImagePixelValue": 4095,
   "MRAcquisitionType": "2D",
   "MagneticFieldStrength": 3.0,
   "Manufacturer": "SIEMENS",
   "ManufacturerModelName": "Prisma",
   "Modality": "MR",
   "NumberOfAverages": 1.0,
   "NumberOfPhaseEncodingSteps": 100,
   "PercentPhaseFieldOfView": 100.0,
   "PercentSampling": 100.0,
   "PerformedProcedureStepStartTime": "132158.553000",
   "PhotometricInterpretation": "MONOCHROME2",
   "PixelBandwidth": 2380.0,
   "PixelRepresentation": 0,
   "PixelSpacing": [
    2.0,
    2.0
   ],
   "ProtocolName": "bold_100x100_s3_2x2x2_static_256",
   "RepetitionTime": 2000.0,
   "Rows": 900,
   "SAR": 0.06229482383338,
   "SamplesPerPixel": 1,
   "ScanOptions": "FS",
   "ScanningSequence": "EP",
   "SequenceName": "*epfid2d1_100",
   "SequenceVariant": "SK",
   "SeriesDescription": "bold_100x100_s3_2x2x2_static_256",
   "SeriesNumber": 13,
   "SeriesTime": "144440.657000",
   "SliceLocation": -72.004403346961,
   "SliceThickness": 2.0,
   "SmallestImagePixelValue": 0,
   "SoftwareVersions": "syngo MR E11",
   "SpacingBetweenSlices": 2.0000000410599,
   "SpecificCharacterSet": "ISO_IR 100",
   "StudyID": "1",
   "StudyTime": "132158.501000",
   "TransmitCoilName": "Body",
   "VariableFlipAngleFlag": "N",
   "WindowCenterWidthExplanation": "Algo1",
   "dBdt": 0.0
  },
  "slices": {}
 },
 "time": {
  "samples": {
   "AcquisitionNumber": [
    1,
    2,
    3,
    4,
    5,
    6,
    7,
    8,
    9,
    10,
    11,
    12,
    13,
    14,
    15,
    16,
    17,
    18,
    19,
    20,
    21,
    22,
    23,
    24,
    25,
    26,
    27,
    28,
    29,
    30,
    31,
    32,
    33,
    34,
    35,
    36,
    37,
    38,
    39,
    40,
    41,
    42,
    43,
    44,
    45,
    46,
    47,
    48,
    49,
    50,
    51,
    52,
    53,
    54,
    55,
    56,
    57,
    58,
    59,
    60,
    61,
    62,
    63,
    64,
    65,
    66,
    67,
    68,
    69,
    70,
    71,
    72,
    73,
    74,
    75,
    76,
    77,
    78,
    79,
    80,
    81,
    82,
    83,
    84,
    85,
    86,
    87,
    88,
    89,
    90,
    91,
    92,
    93,
    94,
    95,
    96,
    97,
    98,
    99,
    100,
    101,
    102,
    103,
    104,
    105,
    106,
    107,
    108,
    109,
    110,
    111,
    112,
    113,
    114,
    115,
    116,
    117,
    118,
    119,
    120,
    121,
    122,
    123,
    124,
    125,
    126,
    127,
    128,
    129,
    130,
    131,
    132,
    133,
    134,
    135,
    136,
    137,
    138,
    139,
    140,
    141,
    142,
    143,
    144,
    145,
    146,
    147,
    148,
    149,
    150,
    151,
    152,
    153,
    154,
    155,
    156,
    157,
    158,
    159,
    160,
    161,
    162,
    163,
    164,
    165,
    166,
    167,
    168,
    169,
    170,
    171,
    172,
    173,
    174,
    175,
    176,
    177,
    178,
    179,
    180,
    181,
    182,
    183,
    184,
    185,
    186,
    187,
    188,
    189,
    190,
    191,
    192,
    193,
    194,
    195,
    196,
    197,
    198,
    199,
    200,
    201,
    202,
    203,
    204,
    205,
    206,
    207,
    208,
    209,
    210,
    211,
    212,
    213,
    214,
    215,
    216,
    217,
    218,
    219,
    220,
    221,
    222,
    223,
    224,
    225,
    226,
    227,
    228,
    229,
    230,
    231,
    232,
    233,
    234,
    235,
    236,
    237,
    238,
    239,
    240,
    241,
    242,
    243,
    244,
    245,
    246,
    247,
    248,
    249,
    250,
    251,
    252,
    253,
    254,
    255,
    256
   ],
   "AcquisitionTime": [
    "144438.187500",
    "144440.187500",
    "144442.187500",
    "144444.187500",
    "144446.187500",
    "144448.187500",
    "144450.187500",
    "144452.187500",
    "144454.187500",
    "144456.187500",
    "144458.187500",
    "144500.187500",
    "144502.187500",
    "144504.187500",
    "144506.187500",
    "144508.187500",
    "144510.187500",
    "144512.187500",
    "144514.187500",
    "144516.187500",
    "144518.187500",
    "144520.187500",
    "144522.187500",
    "144524.187500",
    "144526.187500",
    "144528.187500",
    "144530.187500",
    "144532.187500",
    "144534.187500",
    "144536.187500",
    "144538.187500",
    "144540.187500",
    "144542.187500",
    "144544.187500",
    "144546.187500",
    "144548.187500",
    "144550.187500",
    "144552.187500",
    "144554.187500",
    "144556.187500",
    "144558.187500",
    "144600.187500",
    "144602.187500",
    "144604.187500",
    "144606.187500",
    "144608.187500",
    "144610.187500",
    "144612.187500",
    "144614.187500",
    "144616.187500",
    "144618.187500",
    "144620.187500",
    "144622.187500",
    "144624.187500",
    "144626.187500",
    "144628.187500",
    "144630.187500",
    "144632.187500",
    "144634.187500",
    "144636.187500",
    "144638.187500",
    "144640.187500",
    "144642.187500",
    "144644.187500",
    "144646.187500",
    "144648.187500",
    "144650.187500",
    "144652.187500",
    "144654.187500",
    "144656.187500",
    "144658.187500",
    "144700.187500",
    "144702.187500",
    "144704.187500",
    "144706.187500",
    "144708.187500",
    "144710.187500",
    "144712.187500",
    "144714.187500",
    "144716.187500",
    "144718.187500",
    "144720.187500",
    "144722.187500",
    "144724.187500",
    "144726.187500",
    "144728.187500",
    "144730.187500",
    "144732.187500",
    "144734.187500",
    "144736.187500",
    "144738.187500",
    "144740.187500",
    "144742.187500",
    "144744.187500",
    "144746.187500",
    "144748.187500",
    "144750.187500",
    "144752.187500",
    "144754.187500",
    "144756.187500",
    "144758.187500",
    "144800.187500",
    "144802.187500",
    "144804.187500",
    "144806.187500",
    "144808.187500",
    "144810.187500",
    "144812.187500",
    "144814.187500",
    "144816.187500",
    "144818.187500",
    "144820.187500",
    "144822.187500",
    "144824.187500",
    "144826.187500",
    "144828.187500",
    "144830.187500",
    "144832.187500",
    "144834.187500",
    "144836.187500",
    "144838.187500",
    "144840.187500",
    "144842.187500",
    "144844.187500",
    "144846.187500",
    "144848.187500",
    "144850.187500",
    "144852.187500",
    "144854.187500",
    "144856.187500",
    "144858.187500",
    "144900.187500",
    "144902.187500",
    "144904.187500",
    "144906.187500",
    "144908.187500",
    "144910.187500",
    "144912.187500",
    "144914.187500",
    "144916.187500",
    "144918.187500",
    "144920.187500",
    "144922.187500",
    "144924.187500",
    "144926.187500",
    "144928.187500",
    "144930.187500",
    "144932.187500",
    "144934.187500",
    "144936.187500",
    "144938.187500",
    "144940.187500",
    "144942.187500",
    "144944.187500",
    "144946.187500",
    "144948.187500",
    "144950.187500",
    "144952.187500",
    "144954.187500",
    "144956.187500",
    "144958.187500",
    "145000.187500",
    "145002.187500",
    "145004.187500",
    "145006.187500",
    "145008.187500",
    "145010.187500",
    "145012.187500",
    "145014.187500",
    "145016.187500",
    "145018.187500",
    "145020.187500",
    "145022.187500",
    "145024.187500",
    "145026.187500",
    "145028.187500",
    "145030.187500",
    "145032.187500",
    "145034.187500",
    "145036.187500",
    "145038.187500",
    "145040.187500",
    "145042.187500",
    "145044.187500",
    "145046.187500",
    "145048.187500",
    "145050.187500",
    "145052.187500",
    "145054.187500",
    "145056.187500",
    "145058.187500",
    "145100.187500",
    "145102.187500",
    "145104.187500",
    "145106.187500",
    "145108.187500",
    "145110.187500",
    "145112.187500",
    "145114.187500",
    "145116.187500",
    "145118.187500",
    "145120.187500",
    "145122.187500",
    "145124.187500",
    "145126.187500",
    "145128.187500",
    "145130.187500",
    "145132.187500",
    "145134.187500",
    "145136.187500",
    "145138.187500",
    "145140.187500",
    "145142.187500",
    "145144.187500",
    "145146.187500",
    "145148.187500",
    "145150.187500",
    "145152.187500",
    "145154.187500",
    "145156.187500",
    "145158.187500",
    "145200.187500",
    "145202.187500",
    "145204.187500",
    "145206.187500",
    "145208.187500",
    "145210.187500",
    "145212.187500",
    "145214.187500",
    "145216.187500",
    "145218.187500",
    "145220.187500",
    "145222.187500",
    "145224.187500",
    "145226.187500",
    "145228.187500",
    "145230.187500",
    "145232.187500",
    "145234.187500",
    "145236.187500",
    "145238.187500",
    "145240.187500",
    "145242.187500",
    "145244.187500",
    "145246.187500",
    "145248.187500",
    "145250.187500",
    "145252.187500",
    "145254.187500",
    "145256.187500",
    "145258.187500",
    "145300.187500",
    "145302.187500",
    "145304.187500",
    "145306.187500",
    "145308.187500"
   ],
   "ContentTime": [
    "144440.661000",
    "144442.155000",
    "144444.155000",
    "144446.155000",
    "144448.156000",
    "144450.155000",
    "144452.156000",
    "144454.155000",
    "144456.155000",
    "144458.156000",
    "144500.155000",
    "144502.156000",
    "144504.156000",
    "144506.155000",
    "144508.156000",
    "144510.156000",
    "144512.156000",
    "144514.156000",
    "144516.155000",
    "144518.155000",
    "144520.155000",
    "144522.156000",
    "144524.155000",
    "144526.155000",
    "144528.156000",
    "144530.156000",
    "144532.155000",
    "144534.156000",
    "144536.155000",
    "144538.156000",
    "144540.156000",
    "144542.156000",
    "144544.156000",
    "144546.156000",
    "144548.155000",
    "144550.156000",
    "144552.156000",
    "144554.156000",
    "144556.155000",
    "144558.156000",
    "144600.155000",
    "144602.156000",
    "144604.155000",
    "144606.155000",
    "144608.156000",
    "144610.156000",
    "144612.156000",
    "144614.155000",
    "144616.156000",
    "144618.155000",
    "144620.155000",
    "144622.155000",
    "144624.156000",
    "144626.156000",
    "144628.156000",
    "144630.155000",
    "144632.155000",
    "144634.156000",
    "144636.155000",
    "144638.156000",
    "144640.155000",
    "144642.156000",
    "144644.155000",
    "144646.156000",
    "144648.156000",
    "144650.156000",
    "144652.155000",
    "144654.156000",
    "144656.156000",
    "144658.156000",
    "144700.156000",
    "144702.155000",
    "144704.156000",
    "144706.155000",
    "144708.156000",
    "144710.155000",
    "144712.155000",
    "144714.155000",
    "144716.155000",
    "144718.157000",
    "144720.156000",
    "144722.155000",
    "144724.156000",
    "144726.156000",
    "144728.156000",
    "144730.155000",
    "144732.156000",
    "144734.156000",
    "144736.157000",
    "144738.155000",
    "144740.156000",
    "144742.157000",
    "144744.156000",
    "144746.155000",
    "144748.156000",
    "144750.156000",
    "144752.157000",
    "144754.156000",
    "144756.156000",
    "144758.155000",
    "144800.155000",
    "144802.156000",
    "144804.155000",
    "144806.155000",
    "144808.155000",
    "144810.157000",
    "144812.156000",
    "144814.155000",
    "144816.155000",
    "144818.155000",
    "144820.156000",
    "144822.156000",
    "144824.156000",
    "144826.155000",
    "144828.156000",
    "144830.155000",
    "144832.155000",
    "144834.156000",
    "144836.155000",
    "144838.155000",
    "144840.156000",
    "144842.155000",
    "144844.155000",
    "144846.156000",
    "144848.156000",
    "144850.155000",
    "144852.156000",
    "144854.155000",
    "144856.156000",
    "144858.156000",
    "144900.155000",
    "144902.157000",
    "144904.165000",
    "144906.156000",
    "144908.155000",
    "144910.155000",
    "144912.155000",
    "144914.156000",
    "144916.156000",
    "144918.156000",
    "144920.157000",
    "144922.155000",
    "144924.155000",
    "144926.155000",
    "144928.156000",
    "144930.156000",
    "144932.156000",
    "144934.156000",
    "144936.156000",
    "144938.157000",
    "144940.155000",
    "144942.155000",
    "144944.155000",
    "144946.156000",
    "144948.156000",
    "144950.155000",
    "144952.155000",
    "144954.155000",
    "144956.155000",
    "144958.156000",
    "145000.155000",
    "145002.156000",
    "145004.155000",
    "145006.155000",
    "145008.156000",
    "145010.156000",
    "145012.157000",
    "145014.156000",
    "145016.155000",
    "145018.156000",
    "145020.155000",
    "145022.156000",
    "145024.156000",
    "145026.156000",
    "145028.155000",
    "145030.157000",
    "145032.156000",
    "145034.156000",
    "145036.155000",
    "145038.155000",
    "145040.156000",
    "145042.155000",
    "145044.156000",
    "145046.156000",
    "145048.157000",
    "145050.156000",
    "145052.156000",
    "145054.156000",
    "145056.156000",
    "145058.155000",
    "145100.155000",
    "145102.155000",
    "145104.156000",
    "145106.156000",
    "145108.156000",
    "145110.156000",
    "145112.156000",
    "145114.155000",
    "145116.155000",
    "145118.155000",
    "145120.156000",
    "145122.156000",
    "145124.156000",
    "145126.155000",
    "145128.156000",
    "145130.155000",
    "145132.156000",
    "145134.156000",
    "145136.156000",
    "145138.156000",
    "145140.157000",
    "145142.155000",
    "145144.156000",
    "145146.156000",
    "145148.155000",
    "145150.155000",
    "145152.155000",
    "145154.156000",
    "145156.156000",
    "145158.157000",
    "145200.156000",
    "145202.156000",
    "145204.156000",
    "145206.156000",
    "145208.156000",
    "145210.156000",
    "145212.155000",
    "145214.155000",
    "145216.156000",
    "145218.156000",
    "145220.156000",
    "145222.156000",
    "145224.156000",
    "145226.155000",
    "145228.155000",
    "145230.156000",
    "145232.157000",
    "145234.156000",
    "145236.156000",
    "145238.155000",
    "145240.155000",
    "145242.155000",
    "145244.155000",
    "145246.156000",
    "145248.155000",
    "145250.157000",
    "145252.155000",
    "145254.155000",
    "145256.156000",
    "145258.156000",
    "145300.156000",
    "145302.156000",
    "145304.155000",
    "145306.155000",
    "145308.155000",
    "145309.876000"
   ],
   "InstanceCreationTime": [
    "144440.661000",
    "144442.155000",
    "144444.155000",
    "144446.155000",
    "144448.156000",
    "144450.155000",
    "144452.156000",
    "144454.155000",
    "144456.155000",
    "144458.156000",
    "144500.155000",
    "144502.156000",
    "144504.156000",
    "144506.155000",
    "144508.156000",
    "144510.156000",
    "144512.156000",
    "144514.156000",
    "144516.155000",
    "144518.155000",
    "144520.155000",
    "144522.156000",
    "144524.155000",
    "144526.155000",
    "144528.156000",
    "144530.156000",
    "144532.155000",
    "144534.156000",
    "144536.155000",
    "144538.156000",
    "144540.156000",
    "144542.156000",
    "144544.156000",
    "144546.156000",
    "144548.155000",
    "144550.156000",
    "144552.156000",
    "144554.156000",
    "144556.155000",
    "144558.156000",
    "144600.155000",
    "144602.156000",
    "144604.155000",
    "144606.155000",
    "144608.156000",
    "144610.156000",
    "144612.156000",
    "144614.155000",
    "144616.156000",
    "144618.155000",
    "144620.155000",
    "144622.155000",
    "144624.156000",
    "144626.156000",
    "144628.156000",
    "144630.155000",
    "144632.155000",
    "144634.156000",
    "144636.155000",
    "144638.156000",
    "144640.155000",
    "144642.156000",
    "144644.155000",
    "144646.156000",
    "144648.156000",
    "144650.156000",
    "144652.155000",
    "144654.156000",
    "144656.156000",
    "144658.156000",
    "144700.156000",
    "144702.155000",
    "144704.156000",
    "144706.155000",
    "144708.156000",
    "144710.155000",
    "144712.155000",
    "144714.155000",
    "144716.155000",
    "144718.157000",
    "144720.156000",
    "144722.155000",
    "144724.156000",
    "144726.156000",
    "144728.156000",
    "144730.155000",
    "144732.156000",
    "144734.156000",
    "144736.157000",
    "144738.155000",
    "144740.156000",
    "144742.157000",
    "144744.156000",
    "144746.155000",
    "144748.156000",
    "144750.156000",
    "144752.157000",
    "144754.156000",
    "144756.156000",
    "144758.155000",
    "144800.155000",
    "144802.156000",
    "144804.155000",
    "144806.155000",
    "144808.155000",
    "144810.157000",
    "144812.156000",
    "144814.155000",
    "144816.155000",
    "144818.155000",
    "144820.156000",
    "144822.156000",
    "144824.156000",
    "144826.155000",
    "144828.156000",
    "144830.155000",
    "144832.155000",
    "144834.156000",
    "144836.155000",
    "144838.155000",
    "144840.156000",
    "144842.155000",
    "144844.155000",
    "144846.156000",
    "144848.156000",
    "144850.155000",
    "144852.156000",
    "144854.155000",
    "144856.156000",
    "144858.156000",
    "144900.155000",
    "144902.157000",
    "144904.165000",
    "144906.156000",
    "144908.155000",
    "144910.155000",
    "144912.155000",
    "144914.156000",
    "144916.156000",
    "144918.156000",
    "144920.157000",
    "144922.155000",
    "144924.155000",
    "144926.155000",
    "144928.156000",
    "144930.156000",
    "144932.156000",
    "144934.156000",
    "144936.156000",
    "144938.157000",
    "144940.155000",
    "144942.155000",
    "144944.155000",
    "144946.156000",
    "144948.156000",
    "144950.155000",
    "144952.155000",
    "144954.155000",
    "144956.155000",
    "144958.156000",
    "145000.155000",
    "145002.156000",
    "145004.155000",
    "145006.155000",
    "145008.156000",
    "145010.156000",
    "145012.157000",
    "145014.156000",
    "145016.155000",
    "145018.156000",
    "145020.155000",
    "145022.156000",
    "145024.156000",
    "145026.156000",
    "145028.155000",
    "145030.157000",
    "145032.156000",
    "145034.156000",
    "145036.155000",
    "145038.155000",
    "145040.156000",
    "145042.155000",
    "145044.156000",
    "145046.156000",
    "145048.157000",
    "145050.156000",
    "145052.156000",
    "145054.156000",
    "145056.156000",
    "145058.155000",
    "145100.155000",
    "145102.155000",
    "145104.156000",
    "145106.156000",
    "145108.156000",
    "145110.156000",
    "145112.156000",
    "145114.155000",
    "145116.155000",
    "145118.155000",
    "145120.156000",
    "145122.156000",
    "145124.156000",
    "145126.155000",
    "145128.156000",
    "145130.155000",
    "145132.156000",
    "145134.156000",
    "145136.156000",
    "145138.156000",
    "145140.157000",
    "145142.155000",
    "145144.156000",
    "145146.156000",
    "145148.155000",
    "145150.155000",
    "145152.155000",
    "145154.156000",
    "145156.156000",
    "145158.157000",
    "145200.156000",
    "145202.156000",
    "145204.156000",
    "145206.156000",
    "145208.156000",
    "145210.156000",
    "145212.155000",
    "145214.155000",
    "145216.156000",
    "145218.156000",
    "145220.156000",
    "145222.156000",
    "145224.156000",
    "145226.155000",
    "145228.155000",
    "145230.156000",
    "145232.157000",
    "145234.156000",
    "145236.156000",
    "145238.155000",
    "145240.155000",
    "145242.155000",
    "145244.155000",
    "145246.156000",
    "145248.155000",
    "145250.157000",
    "145252.155000",
    "145254.155000",
    "145256.156000",
    "145258.156000",
    "145300.156000",
    "145302.156000",
    "145304.155000",
    "145306.155000",
    "145308.155000",
    "145309.876000"
   ],
   "InstanceNumber": [
    1,
    2,
    3,
    4,
    5,
    6,
    7,
    8,
    9,
    10,
    11,
    12,
    13,
    14,
    15,
    16,
    17,
    18,
    19,
    20,
    21,
    22,
    23,
    24,
    25,
    26,
    27,
    28,
    29,
    30,
    31,
    32,
    33,
    34,
    35,
    36,
    37,
    38,
    39,
    40,
    41,
    42,
    43,
    44,
    45,
    46,
    47,
    48,
    49,
    50,
    51,
    52,
    53,
    54,
    55,
    56,
    57,
    58,
    59,
    60,
    61,
    62,
    63,
    64,
    65,
    66,
    67,
    68,
    69,
    70,
    71,
    72,
    73,
    74,
    75,
    76,
    77,
    78,
    79,
    80,
    81,
    82,
    83,
    84,
    85,
    86,
    87,
    88,
    89,
    90,
    91,
    92,
    93,
    94,
    95,
    96,
    97,
    98,
    99,
    100,
    101,
    102,
    103,
    104,
    105,
    106,
    107,
    108,
    109,
    110,
    111,
    112,
    113,
    114,
    115,
    116,
    117,
    118,
    119,
    120,
    121,
    122,
    123,
    124,
    125,
    126,
    127,
    128,
    129,
    130,
    131,
    132,
    133,
    134,
    135,
    136,
    137,
    138,
    139,
    140,
    141,
    142,
    143,
    144,
    145,
    146,
    147,
    148,
    149,
    150,
    151,
    152,
    153,
    154,
    155,
    156,
    157,
    158,
    159,
    160,
    161,
    162,
    163,
    164,
    165,
    166,
    167,
    168,
    169,
    170,
    171,
    172,
    173,
    174,
    175,
    176,
    177,
    178,
    179,
    180,
    181,
    182,
    183,
    184,
    185,
    186,
    187,
    188,
    189,
    190,
    191,
    192,
    193,
    194,
    195,
    196,
    197,
    198,
    199,
    200,
    201,
    202,
    203,
    204,
    205,
    206,
    207,
    208,
    209,
    210,
    211,
    212,
    213,
    214,
    215,
    216,
    217,
    218,
    219,
    220,
    221,
    222,
    223,
    224,
    225,
    226,
    227,
    228,
    229,
    230,
    231,
    232,
    233,
    234,
    235,
    236,
    237,
    238,
    239,
    240,
    241,
    242,
    243,
    244,
    245,
    246,
    247,
    248,
    249,
    250,
    251,
    252,
    253,
    254,
    255,
    256
   ],
   "WindowCenter": [
    875.0,
    874.0,
    876.0,
    876.0,
    874.0,
    872.0,
    871.0,
    871.0,
    871.0,
    872.0,
    874.0,
    874.0,
    873.0,
    872.0,
    872.0,
    875.0,
    877.0,
    874.0,
    872.0,
    871.0,
    871.0,
    870.0,
    870.0,
    871.0,
    873.0,
    874.0,
    874.0,
    871.0,
    871.0,
    871.0,
    872.0,
    873.0,
    873.0,
    872.0,
    872.0,
    872.0,
    874.0,
    874.0,
    873.0,
    871.0,
    872.0,
    873.0,
    874.0,
    875.0,
    875.0,
    874.0,
    874.0,
    875.0,
    874.0,
    874.0,
    874.0,
    874.0,
    874.0,
    873.0,
    873.0,
    875.0,
    874.0,
    872.0,
    870.0,
    871.0,
    873.0,
    873.0,
    873.0,
    872.0,
    871.0,
    872.0,
    873.0,
    872.0,
    872.0,
    871.0,
    871.0,
    872.0,
    873.0,
    874.0,
    872.0,
    871.0,
    872.0,
    873.0,
    873.0,
    873.0,
    872.0,
    871.0,
    871.0,
    872.0,
    873.0,
    872.0,
    872.0,
    873.0,
    873.0,
    872.0,
    872.0,
    872.0,
    871.0,
    872.0,
    874.0,
    874.0,
    873.0,
    872.0,
    871.0,
    872.0,
    874.0,
    875.0,
    874.0,
    873.0,
    872.0,
    872.0,
    872.0,
    874.0,
    874.0,
    873.0,
    872.0,
    872.0,
    873.0,
    872.0,
    871.0,
    870.0,
    870.0,
    871.0,
    873.0,
    876.0,
    875.0,
    873.0,
    873.0,
    873.0,
    874.0,
    873.0,
    873.0,
    873.0,
    873.0,
    873.0,
    873.0,
    871.0,
    871.0,
    872.0,
    873.0,
    872.0,
    871.0,
    871.0,
    872.0,
    873.0,
    872.0,
    872.0,
    871.0,
    871.0,
    872.0,
    873.0,
    873.0,
    872.0,
    871.0,
    872.0,
    873.0,
    873.0,
    872.0,
    873.0,
    874.0,
    874.0,
    873.0,
    873.0,
    873.0,
    874.0,
    875.0,
    874.0,
    872.0,
    871.0,
    871.0,
    870.0,
    870.0,
    871.0,
    873.0,
    873.0,
    872.0,
    871.0,
    872.0,
    872.0,
    872.0,
    872.0,
    873.0,
    874.0,
    873.0,
    871.0,
    871.0,
    873.0,
    873.0,
    872.0,
    872.0,
    873.0,
    874.0,
    874.0,
    871.0,
    870.0,
    871.0,
    871.0,
    871.0,
    872.0,
    873.0,
    873.0,
    873.0,
    873.0,
    873.0,
    873.0,
    872.0,
    871.0,
    871.0,
    872.0,
    873.0,
    873.0,
    875.0,
    875.0,
    873.0,
    871.0,
    871.0,
    872.0,
    873.0,
    873.0,
    873.0,
    872.0,
    873.0,
    873.0,
    872.0,
    871.0,
    871.0,
    871.0,
    873.0,
    873.0,
    871.0,
    870.0,
    872.0,
    873.0,
    871.0,
    871.0,
    873.0,
    874.0,
    873.0,
    872.0,
    872.0,
    873.0,
    874.0,
    873.0,
    872.0,
    872.0,
    871.0,
    872.0,
    873.0,
    874.0,
    872.0,
    872.0,
    874.0,
    875.0,
    873.0,
    872.0,
    872.0,
    872.0,
    872.0,
    872.0,
    873.0,
    873.0
   ],
   "WindowWidth": [
    1931.0,
    1927.0,
    1933.0,
    1934.0,
    1929.0,
    1923.0,
    1920.0,
    1920.0,
    1921.0,
    1924.0,
    1929.0,
    1928.0,
    1925.0,
    1921.0,
    1923.0,
    1932.0,
    1939.0,
    1929.0,
    1922.0,
    1921.0,
    1920.0,
    1917.0,
    1918.0,
    1921.0,
    1925.0,
    1929.0,
    1928.0,
    1920.0,
    1919.0,
    1921.0,
    1922.0,
    1924.0,
    1925.0,
    1923.0,
    1923.0,
    1924.0,
    1928.0,
    1929.0,
    1925.0,
    1921.0,
    1922.0,
    1925.0,
    1929.0,
    1932.0,
    1930.0,
    1928.0,
    1930.0,
    1931.0,
    1929.0,
    1928.0,
    1929.0,
    1929.0,
    1927.0,
    1926.0,
    1925.0,
    1930.0,
    1929.0,
    1922.0,
    1918.0,
    1920.0,
    1926.0,
    1927.0,
    1926.0,
    1922.0,
    1920.0,
    1922.0,
    1925.0,
    1924.0,
    1922.0,
    1921.0,
    1921.0,
    1923.0,
    1927.0,
    1928.0,
    1923.0,
    1919.0,
    1924.0,
    1927.0,
    1928.0,
    1926.0,
    1924.0,
    1921.0,
    1921.0,
    1925.0,
    1926.0,
    1924.0,
    1923.0,
    1926.0,
    1927.0,
    1924.0,
    1925.0,
