{
  "AcquisitionMatrixPE": 100,
  "AcquisitionNumber": 1,
  "AcquisitionTime": "16:20:38.942500",
  "BandwidthPerPixelPhaseEncode": 18.519,
  "BaseResolution": 100,
  "BodyPartExamined": "BRAIN",
  "ConsistencyInfo": "N4_VE11C_LATEST_20160120",
  "ConversionSoftware": "dcm2niix",
  "ConversionSoftwareVersion": "v1.0.20180622 GCC4.9.2",
  "DerivedVendorReportedEchoSpacing": 0.000539986,
  "DeviceSerialNumber": "166078",
  "DwellTime": 2.1e-06,
  "EchoTime": 0.034,
  "EchoTrainLength": 100,
  "EffectiveEchoSpacing": 0.000539986,
  "FlipAngle": 90,
  "ImageOrientationPatientDICOM": [1, 0, 0, 0, 0.979223, -0.202787],
  "ImageType": [
    "ORIGINAL",
    "PRIMARY",
    "M",
    "ND",
    "MOSAIC"
],
  "InPlanePhaseEncodingDirectionDICOM": "COL",
  "InstitutionAddress": "Street_StreetNo_Bei_Jing_District_CN_ZIP",
  "InstitutionName": "BeiJing_Normal_University",
  "InstitutionalDepartmentName": "Department",
  "MRAcquisitionType": "2D",
  "MagneticFieldStrength": 3,
  "Manufacturer": "Siemens",
  "ManufacturersModelName": "Prisma",
  "Modality": "MR",
  "MultibandAccelerationFactor": 3,
  "PartialFourier": 1,
  "PatientPosition": "HFS",
  "PercentPhaseFOV": 100,
  "PhaseEncodingDirection": "j-",
  "PhaseEncodingSteps": 100,
  "PhaseResolution": 1,
  "PixelBandwidth": 2380,
  "ProcedureStepDescription": "BNU_P2018_64CH_Zhen.ZongLei",
  "ProtocolName": "bold_100x100_s3_2x2x2_static_256",
  "PulseSequenceDetails": "%SiemensSeq%_ep2d_bold",
  "ReceiveCoilActiveElements": "HC1-7;NC1",
  "ReceiveCoilName": "HeadNeck_64",
  "ReconMatrixPE": 100,
  "RepetitionTime": 2,
  "SAR": 0.072326,
  "ScanOptions": "FS",
  "ScanningSequence": "EP",
  "SequenceName": "_epfid2d1_100",
  "SequenceVariant": "SK",
  "SeriesDescription": "bold_100x100_s3_2x2x2_static_256",
  "SeriesNumber": 12,
  "ShimSetting": [-5461, -11506, -1281, 266, -49, -321, -80, 58],
  "SliceThickness": 2,
  "SliceTiming": [1.485, 0, 0.99, 0.0825, 1.0725, 0.165, 1.155, 0.2475, 1.2375, 0.33, 1.32, 0.4125, 1.4025, 0.5775, 1.5675, 0.66, 1.65, 0.7425, 1.7325, 0.825, 1.815, 0.9075, 1.8975, 0.495, 1.485, 0, 0.99, 0.0825, 1.0725, 0.165, 1.155, 0.2475, 1.2375, 0.33, 1.32, 0.4125, 1.4025, 0.5775, 1.5675, 0.66, 1.65, 0.7425, 1.7325, 0.825, 1.815, 0.9075, 1.8975, 0.495, 1.485, 0, 0.99, 0.0825, 1.0725, 0.165, 1.155, 0.2475, 1.2375, 0.33, 1.32, 0.4125, 1.4025, 0.5775, 1.5675, 0.66, 1.65, 0.7425, 1.7325, 0.825, 1.815, 0.9075, 1.8975, 0.495],
  "SoftwareVersions": "syngo_MR_E11",
  "SpacingBetweenSlices": 2,
  "StationName": "AWP166078",
  "TaskName": "naturalvision",
  "TotalReadoutTime": 0.0534586,
  "TxRefAmp": 221.623,
  "dcmmeta_affine": [
    [-2.0, 0.0, 0.0, 99.32203674316406],
    [0.0, 1.95844566822052, -0.4055745601654053, -72.185791015625],
    [0.0, 0.4055745601654053, 1.9584455490112305, -91.99361419677734],
    [0.0, 0.0, 0.0, 1.0]
],
  "dcmmeta_reorient_transform": [
    [0.0, -1.0, 0.0, 99.0],
    [1.0, 0.0, 0.0, 0.0],
    [0.0, 0.0, 1.0, 0.0],
    [0.0, 0.0, 0.0, 1.0]
],
  "dcmmeta_shape": [100, 100, 72, 256],
  "dcmmeta_slice_dim": 2,
  "dcmmeta_version": 0.6,
  "global": {
    "const": {
      "AcquisitionMatrix": [100, 0, 0, 100],
      "AngioFlag": "N",
      "BitsAllocated": 16,
      "BitsStored": 12,
      "BodyPartExamined": "BRAIN",
      "Columns": 900,
      "EchoNumbers": 1,
      "EchoTime": 34.0,
      "EchoTrainLength": 100,
      "FlipAngle": 90.0,
      "HighBit": 11,
      "ImageOrientationPatient": [1.0, 0.0, 0.0, 0.0, 0.97922281297031, -0.2027872840158],
      "ImagePositionPatient": [-899.32203388214, -905.07857542023, 110.38809510398],
      "ImageType": [
        "ORIGINAL",
        "PRIMARY",
        "M",
        "ND",
        "MOSAIC"
],
      "ImagedNucleus": "1H",
      "ImagingFrequency": 123.257727,
      "InPlanePhaseEncodingDirection": "COL",
      "MRAcquisitionType": "2D",
      "MagneticFieldStrength": 3.0,
      "Manufacturer": "SIEMENS",
      "ManufacturerModelName": "Prisma",
      "Modality": "MR",
      "NumberOfAverages": 1.0,
      "NumberOfPhaseEncodingSteps": 100,
      "PercentPhaseFieldOfView": 100.0,
      "PercentSampling": 100.0,
      "PerformedProcedureStepStartTime": "145918.143000",
      "PhotometricInterpretation": "MONOCHROME2",
      "PixelBandwidth": 2380.0,
      "PixelRepresentation": 0,
      "PixelSpacing": [2.0, 2.0],
      "ProtocolName": "bold_100x100_s3_2x2x2_static_256",
      "RepetitionTime": 2000.0,
      "Rows": 900,
      "SAR": 0.07232598348591,
      "SamplesPerPixel": 1,
      "ScanOptions": "FS",
      "ScanningSequence": "EP",
      "SequenceName": "*epfid2d1_100",
      "SequenceVariant": "SK",
      "SeriesDescription": "bold_100x100_s3_2x2x2_static_256",
      "SeriesNumber": 12,
      "SeriesTime": "162042.160000",
      "SliceLocation": -75.443885124218,
      "SliceThickness": 2.0,
      "SmallestImagePixelValue": 0,
      "SoftwareVersions": "syngo MR E11",
      "SpacingBetweenSlices": 1.9999999700232,
      "SpecificCharacterSet": "ISO_IR 100",
      "StudyID": "1",
      "StudyTime": "145918.084000",
      "TransmitCoilName": "Body",
      "VariableFlipAngleFlag": "N",
      "WindowCenterWidthExplanation": "Algo1",
      "dBdt": 0.0},
    "slices": {}
  },
  "time": {
    "samples": {
      "AcquisitionNumber": [1, 2, 3, 4, 5, 6, 7, 8, 9, 10, 11, 12, 13, 14, 15, 16, 17, 18, 19, 20, 21, 22, 23, 24, 25, 26, 27, 28, 29, 30, 31, 32, 33, 34, 35, 36, 37, 38, 39, 40, 41, 42, 43, 44, 45, 46, 47, 48, 49, 50, 51, 52, 53, 54, 55, 56, 57, 58, 59, 60, 61, 62, 63, 64, 65, 66, 67, 68, 69, 70, 71, 72, 73, 74, 75, 76, 77, 78, 79, 80, 81, 82, 83, 84, 85, 86, 87, 88, 89, 90, 91, 92, 93, 94, 95, 96, 97, 98, 99, 100, 101, 102, 103, 104, 105, 106, 107, 108, 109, 110, 111, 112, 113, 114, 115, 116, 117, 118, 119, 120, 121, 122, 123, 124, 125, 126, 127, 128, 129, 130, 131, 132, 133, 134, 135, 136, 137, 138, 139, 140, 141, 142, 143, 144, 145, 146, 147, 148, 149, 150, 151, 152, 153, 154, 155, 156, 157, 158, 159, 160, 161, 162, 163, 164, 165, 166, 167, 168, 169, 170, 171, 172, 173, 174, 175, 176, 177, 178, 179, 180, 181, 182, 183, 184, 185, 186, 187, 188, 189, 190, 191, 192, 193, 194, 195, 196, 197, 198, 199, 200, 201, 202, 203, 204, 205, 206, 207, 208, 209, 210, 211, 212, 213, 214, 215, 216, 217, 218, 219, 220, 221, 222, 223, 224, 225, 226, 227, 228, 229, 230, 231, 232, 233, 234, 235, 236, 237, 238, 239, 240, 241, 242, 243, 244, 245, 246, 247, 248, 249, 250, 251, 252, 253, 254, 255, 256],
      "AcquisitionTime": ["162038.942500", "162040.942500", "162042.942500", "162044.942500", "162046.942500", "162048.942500", "162050.942500", "162052.942500", "162054.942500", "162056.942500", "162058.942500", "162100.942500", "162102.942500", "162104.942500", "162106.942500", "162108.942500", "162110.942500", "162112.942500", "162114.942500", "162116.942500", "162118.942500", "162120.942500", "162122.942500", "162124.942500", "162126.942500", "162128.942500", "162130.942500", "162132.942500", "162134.942500", "162136.942500", "162138.942500", "162140.942500", "162142.942500", "162144.942500", "162146.942500", "162148.942500", "162150.942500", "162152.942500", "162154.942500", "162156.942500", "162158.942500", "162200.942500", "162202.942500", "162204.942500", "162206.942500", "162208.942500", "162210.942500", "162212.942500", "162214.942500", "162216.942500", "162218.942500", "162220.942500", "162222.942500", "162224.942500", "162226.942500", "162228.942500", "162230.942500", "162232.942500", "162234.942500", "162236.942500", "162238.942500", "162240.942500", "162242.942500", "162244.942500", "162246.942500", "162248.942500", "162250.942500", "162252.942500", "162254.942500", "162256.942500", "162258.942500", "162300.942500", "162302.942500", "162304.942500", "162306.942500", "162308.942500", "162310.942500", "162312.942500", "162314.942500", "162316.942500", "162318.942500", "162320.942500", "162322.942500", "162324.942500", "162326.942500", "162328.942500", "162330.942500", "162332.942500", "162334.942500", "162336.942500", "162338.942500", "162340.942500", "162342.942500", "162344.942500", "162346.942500", "162348.942500", "162350.942500", "162352.942500", "162354.942500", "162356.942500", "162358.942500", "162400.942500", "162402.942500", "162404.942500", "162406.942500", "162408.942500", "162410.942500", "162412.942500", "162414.942500", "162416.942500", "162418.942500", "162420.942500", "162422.942500", "162424.942500", "162426.942500", "162428.942500", "162430.942500", "162432.942500", "162434.942500", "162436.942500", "162438.942500", "162440.942500", "162442.942500", "162444.942500", "162446.942500", "162448.942500", "162450.942500", "162452.942500", "162454.942500", "162456.942500", "162458.942500", "162500.942500", "162502.942500", "162504.942500", "162506.942500", "162508.942500", "162510.942500", "162512.942500", "162514.942500", "162516.942500", "162518.942500", "162520.942500", "162522.942500", "162524.942500", "162526.942500", "162528.942500", "162530.942500", "162532.942500", "162534.942500", "162536.942500", "162538.942500", "162540.942500", "162542.942500", "162544.942500", "162546.942500", "162548.942500", "162550.942500", "162552.942500", "162554.942500", "162556.942500", "162558.942500", "162600.942500", "162602.942500", "162604.942500", "162606.942500", "162608.942500", "162610.942500", "162612.942500", "162614.942500", "162616.942500", "162618.942500", "162620.942500", "162622.942500", "162624.942500", "162626.942500", "162628.942500", "162630.942500", "162632.942500", "162634.942500", "162636.942500", "162638.942500", "162640.942500", "162642.942500", "162644.942500", "162646.942500", "162648.942500", "162650.942500", "162652.942500", "162654.942500", "162656.942500", "162658.942500", "162700.942500", "162702.942500", "162704.942500", "162706.942500", "162708.942500", "162710.942500", "162712.942500", "162714.942500", "162716.942500", "162718.942500", "162720.942500", "162722.942500", "162724.942500", "162726.942500", "162728.942500", "162730.942500", "162732.942500", "162734.942500", "162736.942500", "162738.942500", "162740.942500", "162742.942500", "162744.942500", "162746.942500", "162748.942500", "162750.942500", "162752.942500", "162754.942500", "162756.942500", "162758.942500", "162800.942500", "162802.942500", "162804.942500", "162806.942500", "162808.942500", "162810.942500", "162812.942500", "162814.942500", "162816.942500", "162818.942500", "162820.942500", "162822.942500", "162824.942500", "162826.942500", "162828.942500", "162830.942500", "162832.942500", "162834.942500", "162836.942500", "162838.942500", "162840.942500", "162842.942500", "162844.942500", "162846.942500", "162848.942500", "162850.942500", "162852.942500", "162854.942500", "162856.942500", "162858.942500", "162900.942500", "162902.942500", "162904.942500", "162906.942500", "162908.942500"],
      "ContentTime": ["162042.163000", "162043.159000", "162045.159000", "162047.159000", "162049.158000", "162051.159000", "162053.159000", "162055.157000", "162057.159000", "162059.158000", "162101.158000", "162103.159000", "162105.158000", "162107.159000", "162109.159000", "162111.159000", "162113.159000", "162115.158000", "162117.158000", "162119.159000", "162121.159000", "162123.158000", "162125.159000", "162127.158000", "162129.158000", "162131.158000", "162133.158000", "162135.159000", "162137.158000", "162139.158000", "162141.158000", "162143.158000", "162145.159000", "162147.158000", "162149.158000", "162151.159000", "162153.158000", "162155.158000", "162157.159000", "162159.158000", "162201.159000", "162203.159000", "162205.159000", "162207.158000", "162209.159000", "162211.159000", "162213.158000", "162215.158000", "162217.158000", "162219.158000", "162221.158000", "162223.158000", "162225.159000", "162227.158000", "162229.159000", "162231.158000", "162233.158000", "162235.158000", "162237.159000", "162239.159000", "162241.158000", "162243.159000", "162245.158000", "162247.159000", "162249.158000", "162251.158000", "162253.159000", "162255.158000", "162257.157000", "162259.158000", "162301.159000", "162303.158000", "162305.659000", "162307.159000", "162309.159000", "162311.159000", "162313.159000", "162315.158000", "162317.159000", "162319.158000", "162321.159000", "162323.159000", "162325.158000", "162327.159000", "162329.159000", "162331.158000", "162333.159000", "162335.158000", "162337.158000", "162339.158000", "162341.158000", "162343.158000", "162345.158000", "162347.159000", "162349.158000", "162351.158000", "162353.159000", "162355.159000", "162357.159000", "162359.158000", "162401.158000", "162403.159000", "162405.158000", "162407.158000", "162409.158000", "162411.158000", "162413.158000", "162415.659000", "162417.158000", "162419.159000", "162421.158000", "162423.158000", "162425.158000", "162427.158000", "162429.658000", "162431.159000", "162433.159000", "162435.159000", "162437.158000", "162439.158000", "162441.159000", "162443.159000", "162445.159000", "162447.159000", "162449.158000", "162451.159000", "162453.659000", "162455.158000", "162457.158000", "162459.158000", "162501.158000", "162503.159000", "162505.158000", "162507.159000", "162509.158000", "162511.659000", "162513.159000", "162515.159000", "162517.157000", "162519.159000", "162521.159000", "162523.159000", "162525.158000", "162527.158000", "162529.158000", "162531.159000", "162533.158000", "162535.159000", "162537.158000", "162539.159000", "162541.159000", "162543.159000", "162545.158000", "162547.159000", "162549.159000", "162551.159000", "162553.159000", "162555.158000", "162557.158000", "162559.159000", "162601.158000", "162603.158000", "162605.158000", "162607.158000", "162609.158000", "162611.159000", "162613.158000", "162615.159000", "162617.159000", "162619.158000", "162621.158000", "162623.158000", "162625.159000", "162627.157000", "162629.159000", "162631.659000", "162633.159000", "162635.159000", "162637.158000", "162639.159000", "162641.159000", "162643.158000", "162645.158000", "162647.158000", "162649.658000", "162651.658000", "162653.158000", "162655.159000", "162657.158000", "162659.158000", "162701.159000", "162703.159000", "162705.158000", "162707.158000", "162709.159000", "162711.159000", "162713.159000", "162715.158000", "162717.159000", "162719.159000", "162721.159000", "162723.159000", "162725.158000", "162727.158000", "162729.158000", "162731.158000", "162733.159000", "162735.159000", "162737.157000", "162739.158000", "162741.158000", "162743.159000", "162745.158000", "162747.158000", "162749.159000", "162751.159000", "162753.159000", "162755.158000", "162757.158000", "162759.159000", "162801.167000", "162803.158000", "162805.158000", "162807.159000", "162809.659000", "162811.159000", "162813.158000", "162815.159000", "162817.158000", "162819.159000", "162821.159000", "162823.659000", "162825.159000", "162827.159000", "162829.158000", "162831.159000", "162833.161000", "162835.159000", "162837.159000", "162839.158000", "162841.159000", "162843.159000", "162845.159000", "162847.157000", "162849.159000", "162851.158000", "162853.159000", "162855.159000", "162857.659000", "162859.158000", "162901.158000", "162903.158000", "162905.658000", "162907.159000", "162909.159000", "162911.055000"],
      "InstanceCreationTime": ["162042.163000", "162043.159000", "162045.159000", "162047.159000", "162049.158000", "162051.159000", "162053.159000", "162055.157000", "162057.159000", "162059.158000", "162101.158000", "162103.159000", "162105.158000", "162107.159000", "162109.159000", "162111.159000", "162113.159000", "162115.158000", "162117.158000", "162119.159000", "162121.159000", "162123.158000", "162125.159000", "162127.158000", "162129.158000", "162131.158000", "162133.158000", "162135.159000", "162137.158000", "162139.158000", "162141.158000", "162143.158000", "162145.159000", "162147.158000", "162149.158000", "162151.159000", "162153.158000", "162155.158000", "162157.159000", "162159.158000", "162201.159000", "162203.159000", "162205.159000", "162207.158000", "162209.159000", "162211.159000", "162213.158000", "162215.158000", "162217.158000", "162219.158000", "162221.158000", "162223.158000", "162225.159000", "162227.158000", "162229.159000", "162231.158000", "162233.158000", "162235.158000", "162237.159000", "162239.159000", "162241.158000", "162243.159000", "162245.158000", "162247.159000", "162249.158000", "162251.158000", "162253.159000", "162255.158000", "162257.157000", "162259.158000", "162301.159000", "162303.158000", "162305.659000", "162307.159000", "162309.159000", "162311.159000", "162313.159000", "162315.158000", "162317.159000", "162319.158000", "162321.159000", "162323.159000", "162325.158000", "162327.159000", "162329.159000", "162331.158000", "162333.159000", "162335.158000", "162337.158000", "162339.158000", "162341.158000", "162343.158000", "162345.158000", "162347.159000", "162349.158000", "162351.158000", "162353.159000", "162355.159000", "162357.159000", "162359.158000", "162401.158000", "162403.159000", "162405.158000", "162407.158000", "162409.158000", "162411.158000", "162413.158000", "162415.659000", "162417.158000", "162419.159000", "162421.158000", "162423.158000", "162425.158000", "162427.158000", "162429.658000", "162431.159000", "162433.159000", "162435.159000", "162437.158000", "162439.158000", "162441.159000", "162443.159000", "162445.159000", "162447.159000", "162449.158000", "162451.159000", "162453.659000", "162455.158000", "162457.158000", "162459.158000", "162501.158000", "162503.159000", "162505.158000", "162507.159000", "162509.158000", "162511.659000", "162513.159000", "162515.159000", "162517.157000", "162519.159000", "162521.159000", "162523.159000", "162525.158000", "162527.158000", "162529.158000", "162531.159000", "162533.158000", "162535.159000", "162537.158000", "162539.159000", "162541.159000", "162543.159000", "162545.158000", "162547.159000", "162549.159000", "162551.159000", "162553.159000", "162555.158000", "162557.158000", "162559.159000", "162601.158000", "162603.158000", "162605.158000", "162607.158000", "162609.158000", "162611.159000", "162613.158000", "162615.159000", "162617.159000", "162619.158000", "162621.158000", "162623.158000", "162625.159000", "162627.157000", "162629.159000", "162631.659000", "162633.159000", "162635.159000", "162637.158000", "162639.159000", "162641.159000", "162643.158000", "162645.158000", "162647.158000", "162649.658000", "162651.658000", "162653.158000", "162655.159000", "162657.158000", "162659.158000", "162701.159000", "162703.159000", "162705.158000", "162707.158000", "162709.159000", "162711.159000", "162713.159000", "162715.158000", "162717.159000", "162719.159000", "162721.159000", "162723.159000", "162725.158000", "162727.158000", "162729.158000", "162731.158000", "162733.159000", "162735.159000", "162737.157000", "162739.158000", "162741.158000", "162743.159000", "162745.158000", "162747.158000", "162749.159000", "162751.159000", "162753.159000", "162755.158000", "162757.158000", "162759.159000", "162801.167000", "162803.158000", "162805.158000", "162807.159000", "162809.659000", "162811.159000", "162813.158000", "162815.159000", "162817.158000", "162819.159000", "162821.159000", "162823.659000", "162825.159000", "162827.159000", "162829.158000", "162831.159000", "162833.161000", "162835.159000", "162837.159000", "162839.158000", "162841.159000", "162843.159000", "162845.159000", "162847.157000", "162849.159000", "162851.158000", "162853.159000", "162855.159000", "162857.659000", "162859.158000", "162901.158000", "162903.158000", "162905.658000", "162907.159000", "162909.159000", "162911.055000"],
      "InstanceNumber": [1, 2, 3, 4, 5, 6, 7, 8, 9, 10, 11, 12, 13, 14, 15, 16, 17, 18, 19, 20, 21, 22, 23, 24, 25, 26, 27, 28, 29, 30, 31, 32, 33, 34, 35, 36, 37, 38, 39, 40, 41, 42, 43, 44, 45, 46, 47, 48, 49, 50, 51, 52, 53, 54, 55, 56, 57, 58, 59, 60, 61, 62, 63, 64, 65, 66, 67, 68, 69, 70, 71, 72, 73, 74, 75, 76, 77, 78, 79, 80, 81, 82, 83, 84, 85, 86, 87, 88, 89, 90, 91, 92, 93, 94, 95, 96, 97, 98, 99, 100, 101, 102, 103, 104, 105, 106, 107, 108, 109, 110, 111, 112, 113, 114, 115, 116, 117, 118, 119, 120, 121, 122, 123, 124, 125, 126, 127, 128, 129, 130, 131, 132, 133, 134, 135, 136, 137, 138, 139, 140, 141, 142, 143, 144, 145, 146, 147, 148, 149, 150, 151, 152, 153, 154, 155, 156, 157, 158, 159, 160, 161, 162, 163, 164, 165, 166, 167, 168, 169, 170, 171, 172, 173, 174, 175, 176, 177, 178, 179, 180, 181, 182, 183, 184, 185, 186, 187, 188, 189, 190, 191, 192, 193, 194, 195, 196, 197, 198, 199, 200, 201, 202, 203, 204, 205, 206, 207, 208, 209, 210, 211, 212, 213, 214, 215, 216, 217, 218, 219, 220, 221, 222, 223, 224, 225, 226, 227, 228, 229, 230, 231, 232, 233, 234, 235, 236, 237, 238, 239, 240, 241, 242, 243, 244, 245, 246, 247, 248, 249, 250, 251, 252, 253, 254, 255, 256],
      "LargestImagePixelValue": [2766, 2727, 2728, 2737, 2721, 2806, 2747, 2704, 2877, 2817, 2867, 2800, 2707, 2717, 2819, 3018, 3000, 2644, 2989, 2866, 2757, 2815, 2740, 2747, 2762, 2730, 2705, 2692, 2898, 2912, 2834, 2821, 2677, 2743, 2773, 2748, 2769, 2760, 2964, 2634, 2785, 2723, 2767, 2728, 2619, 2714, 2824, 2714, 2874, 2588, 2901, 2838, 2900, 2709, 2776, 3029, 2745, 2743, 2757, 2824, 2768, 2796, 2767, 2771, 2834, 2853, 2621, 2665, 2683, 2735, 2756, 2888, 3003, 2960, 2887, 2762, 2811, 2772, 2701, 2728, 2720, 2759, 2743, 3002, 2899, 2694, 2641, 2534, 2772, 2672, 2801, 2695, 2684, 2710, 2768, 2731, 2660, 2564, 2610, 2691, 2767, 2753, 2808, 2658, 2769, 2698, 2746, 2980, 2695, 2774, 2746, 2821, 2984, 2891, 2901, 2952, 2743, 2862, 2970, 2839, 2747, 2934, 2973, 2705, 2738, 2763, 2780, 3052, 2899, 2786, 2907, 2803, 2933, 2867, 2852, 2764, 2796, 2914, 3025, 2998, 2752, 2964, 2912, 2880, 2835, 2794, 2814, 2657, 2884, 2938, 2765, 2761, 2683, 2786, 2830, 2806, 3035, 2821, 2918, 2776, 2839, 2815, 2687, 2788, 2713, 2738, 2712, 2704, 2694, 2594, 2509, 2451, 2538, 2598, 2722, 3002, 2982, 2553, 2955, 2908, 2781, 2776, 2807, 2700, 2783, 2899, 3129, 3081, 2803, 2682, 2843, 2959, 3172, 3126, 2838, 2877, 3023, 2814, 2782, 3143, 2796, 2830, 2902, 2851, 2912, 2971, 2954, 3107, 2849, 2874, 2742, 2715, 2728, 2666, 2682, 2722, 2774, 2609, 2995, 2797, 2874, 3204, 2982, 2806, 2916, 2713, 2528, 2987, 3026, 2642, 2855, 3044, 2990, 2731, 2745, 2823, 2774, 2788, 2815, 2786, 2829, 2839, 2994, 2737, 2868, 2889, 2688, 2724, 2833, 2870, 2917, 2820, 3031, 2861, 2822, 2953],
      "WindowCenter": [754.0, 752.0, 753.0, 754.0, 753.0, 754.0, 755.0, 755.0, 757.0, 755.0, 754.0, 754.0, 753.0, 754.0, 755.0, 757.0, 756.0, 752.0, 758.0, 756.0, 754.0, 755.0, 754.0, 753.0, 754.0, 753.0, 753.0, 754.0, 756.0, 755.0, 754.0, 755.0, 753.0, 755.0, 755.0, 754.0, 754.0, 754.0, 757.0, 753.0, 756.0, 754.0, 753.0, 752.0, 751.0, 753.0, 754.0, 752.0, 753.0, 751.0, 756.0, 755.0, 754.0, 752.0, 755.0, 757.0, 754.0, 754.0, 755.0, 755.0, 754.0, 754.0, 754.0, 754.0, 754.0, 753.0, 751.0, 751.0, 752.0, 753.0, 754.0, 755.0, 757.0, 756.0, 756.0, 754.0, 755.0, 754.0, 753.0, 754.0, 753.0, 753.0, 753.0, 755.0, 754.0, 753.0, 751.0, 749.0, 752.0, 751.0, 753.0, 751.0, 750.0, 752.0, 753.0, 751.0, 748.0, 746.0, 749.0, 751.0, 752.0, 750.0, 752.0, 750.0, 751.0, 753.0, 753.0, 755.0, 752.0, 752.0, 753.0, 755.0, 757.0, 756.0, 755.0, 755.0, 754.0, 757.0, 759.0, 755.0, 752.0, 754.0, 756.0, 753.0, 753.0, 753.0, 753.0, 755.0, 755.0, 756.0, 757.0, 754.0, 755.0, 754.0, 754.0, 754.0, 755.0, 755.0, 755.0, 755.0, 754.0, 758.0, 755.0, 754.0, 754.0, 753.0, 754.0, 752.0, 756.0, 755.0, 751.0, 750.0, 750.0, 754.0, 754.0, 754.0, 756.0, 754.0, 757.0, 754.0, 754.0, 753.0, 752.0, 752.0, 753.0, 755.0, 754.0, 753.0, 752.0, 749.0, 745.0, 743.0, 745.0, 747.0, 752.0, 754.0, 754.0, 750.0, 760.0, 758.0, 754.0, 753.0, 754.0, 752.0, 755.0, 756.0, 758.0, 756.0, 754.0, 755.0, 758.0, 759.0, 759.0, 757.0, 756.0, 755.0, 755.0, 754.0, 754.0, 756.0, 754.0, 758.0, 757.0, 754.0, 754.0, 755.0, 756.0, 756.0, 755.0, 754.0, 753.0, 751.0, 750.0, 751.0, 753.0, 753.0, 752.0, 750.0, 755.0, 755.0, 757.0, 759.0, 757.0, 753.0, 754.0, 753.0, 755.0, 761.0, 758.0, 752.0, 753.0, 755.0, 754.0, 751.0, 752.0, 752.0, 752.0, 752.0, 753.0, 752.0, 754.0, 753.0, 755.0, 753.0, 755.0, 754.0, 752.0, 752.0, 753.0, 754.0, 755.0, 754.0, 757.0, 755.0, 755.0, 757.0],
      "WindowWidth": [1600.0, 1595.0, 1596.0, 1599.0, 1597.0, 1600.0, 1600.0, 1601.0, 1605.0, 1600.0, 1599.0, 1598.0, 1596.0, 1598.0, 1603.0, 1606.0, 1604.0, 1594.0, 1609.0, 1605.0, 1600.0, 1601.0, 1598.0, 1598.0, 1598.0, 1598.0, 1597.0, 1599.0, 1604.0, 1602.0, 1600.0, 1601.0, 1598.0, 1601.0, 1602.0, 1599.0, 1599.0, 1600.0, 1606.0, 1597.0, 1603.0, 1599.0, 1596.0, 1594.0, 1591.0, 1598.0, 1599.0, 1593.0, 1597.0, 1593.0, 1605.0, 1600.0, 1599.0, 1594.0, 1602.0, 1606.0, 1599.0, 1598.0, 1600.0, 1601.0, 1600.0, 1598.0, 1598.0, 1598.0, 1599.0, 1597.0, 1592.0, 1592.0, 1593.0, 1598.0, 1599.0, 1602.0, 1608.0, 1605.0, 1604.0, 1600.0, 1602.0, 1598.0, 1598.0, 1599.0, 1596.0, 1596.0, 1597.0, 1602.0, 1600.0, 1596.0, 1592.0, 1588.0, 1593.0, 1592.0, 1595.0, 1592.0, 1591.0, 1595.0, 1597.0, 1592.0, 1584.0, 1580.0, 1587.0, 1592.0, 1592.0, 1590.0, 1593.0, 1590.0, 1593.0, 1597.0, 1598.0, 1601.0, 1595.0, 1595.0, 1597.0, 1601.0, 1607.0, 1604.0, 1602.0, 1601.0, 1599.0, 1608.0, 1611.0, 1602.0, 1594.0, 1599.0, 1603.0, 1595.0, 1595.0, 1595.0, 1596.0, 1600.0, 1600.0, 1605.0, 1605.0, 1598.0, 1601.0, 1600.0, 1600.0, 1600.0, 1601.0, 1601.0, 1602.0, 1600.0, 1600.0, 1608.0, 1601.0, 1598.0, 1599.0, 1598.0, 1598.0, 1594.0, 1605.0, 1601.0, 1592.0, 1589.0, 1589.0, 1599.0, 1600.0, 1598.0, 1604.0, 1599.0, 1606.0, 1599.0, 1598.0, 1595.0, 1595.0, 1595.0, 1595.0, 1602.0, 1598.0, 1595.0, 1592.0, 1586.0, 1576.0, 1572.0, 1576.0, 1582.0, 1593.0, 1599.0, 1598.0, 1589.0, 1615.0, 1607.0, 1599.0, 1596.0, 1598.0, 1595.0, 1601.0, 1604.0, 1609.0, 1604.0, 1597.0, 1601.0, 1609.0, 1611.0, 1610.0, 1607.0, 1603.0, 1601.0, 1601.0, 1598.0, 1600.0, 1604.0, 1600.0, 1608.0, 1606.0, 1599.0, 1597.0, 1601.0, 1602.0, 1604.0, 1601.0, 1599.0, 1595.0, 1592.0, 1589.0, 1590.0, 1597.0, 1595.0, 1594.0, 1589.0, 1602.0, 1601.0, 1607.0, 1611.0, 1605.0, 1597.0, 1599.0, 1597.0, 1602.0, 1615.0, 1608.0, 1594.0, 1596.0, 1599.0, 1598.0, 1591.0, 1592.0, 1594.0, 1592.0, 1593.0, 1594.0, 1594.0, 1597.0, 1596.0, 1600.0, 1595.0, 1601.0, 1599.0, 1593.0, 1592.0, 1596.0, 1599.0, 1601.0, 1598.0, 1605.0, 1601.0, 1601.0, 1605.0]
    },
    "slices": {}
  }
}