{
  "AcquisitionMatrixPE": 100,
  "AcquisitionNumber": 1,
  "AcquisitionTime": "16:30:31.030000",
  "BandwidthPerPixelPhaseEncode": 18.519,
  "BaseResolution": 100,
  "BodyPartExamined": "BRAIN",
  "ConsistencyInfo": "N4_VE11C_LATEST_20160120",
  "ConversionSoftware": "dcm2niix",
  "ConversionSoftwareVersion": "v1.0.20180622 GCC4.9.2",
  "DerivedVendorReportedEchoSpacing": 0.000539986,
  "DeviceSerialNumber": "166078",
  "DwellTime": 2.1e-06,
  "EchoTime": 0.034,
  "EchoTrainLength": 100,
  "EffectiveEchoSpacing": 0.000539986,
  "FlipAngle": 90,
  "ImageOrientationPatientDICOM": [1, 0, 0, 0, 0.979223, -0.202787],
  "ImageType": [
    "ORIGINAL",
    "PRIMARY",
    "M",
    "ND",
    "MOSAIC"
],
  "InPlanePhaseEncodingDirectionDICOM": "COL",
  "InstitutionAddress": "Street_StreetNo_Bei_Jing_District_CN_ZIP",
  "InstitutionName": "BeiJing_Normal_University",
  "InstitutionalDepartmentName": "Department",
  "MRAcquisitionType": "2D",
  "MagneticFieldStrength": 3,
  "Manufacturer": "Siemens",
  "ManufacturersModelName": "Prisma",
  "Modality": "MR",
  "MultibandAccelerationFactor": 3,
  "PartialFourier": 1,
  "PatientPosition": "HFS",
  "PercentPhaseFOV": 100,
  "PhaseEncodingDirection": "j-",
  "PhaseEncodingSteps": 100,
  "PhaseResolution": 1,
  "PixelBandwidth": 2380,
  "ProcedureStepDescription": "BNU_P2018_64CH_Zhen.ZongLei",
  "ProtocolName": "bold_100x100_s3_2x2x2_static_256",
  "PulseSequenceDetails": "%SiemensSeq%_ep2d_bold",
  "ReceiveCoilActiveElements": "HC1-7;NC1",
  "ReceiveCoilName": "HeadNeck_64",
  "ReconMatrixPE": 100,
  "RepetitionTime": 2,
  "SAR": 0.072326,
  "ScanOptions": "FS",
  "ScanningSequence": "EP",
  "SequenceName": "_epfid2d1_100",
  "SequenceVariant": "SK",
  "SeriesDescription": "bold_100x100_s3_2x2x2_static_256",
  "SeriesNumber": 13,
  "ShimSetting": [-5461, -11506, -1281, 266, -49, -321, -80, 58],
  "SliceThickness": 2,
  "SliceTiming": [1.485, 0, 0.99, 0.0825, 1.0725, 0.165, 1.155, 0.2475, 1.2375, 0.33, 1.32, 0.4125, 1.4025, 0.5775, 1.5675, 0.66, 1.65, 0.7425, 1.7325, 0.825, 1.815, 0.9075, 1.8975, 0.495, 1.485, 0, 0.99, 0.0825, 1.0725, 0.165, 1.155, 0.2475, 1.2375, 0.33, 1.32, 0.4125, 1.4025, 0.5775, 1.5675, 0.66, 1.65, 0.7425, 1.7325, 0.825, 1.815, 0.9075, 1.8975, 0.495, 1.485, 0, 0.99, 0.0825, 1.0725, 0.165, 1.155, 0.2475, 1.2375, 0.33, 1.32, 0.4125, 1.4025, 0.5775, 1.5675, 0.66, 1.65, 0.7425, 1.7325, 0.825, 1.815, 0.9075, 1.8975, 0.495],
  "SoftwareVersions": "syngo_MR_E11",
  "SpacingBetweenSlices": 2,
  "StationName": "AWP166078",
  "TaskName": "naturalvision",
  "TotalReadoutTime": 0.0534586,
  "TxRefAmp": 221.623,
  "dcmmeta_affine": [
    [-2.0, 0.0, 0.0, 99.32203674316406],
    [0.0, 1.95844566822052, -0.4055745601654053, -72.185791015625],
    [0.0, 0.4055745601654053, 1.9584455490112305, -91.99361419677734],
    [0.0, 0.0, 0.0, 1.0]
],
  "dcmmeta_reorient_transform": [
    [0.0, -1.0, 0.0, 99.0],
    [1.0, 0.0, 0.0, 0.0],
    [0.0, 0.0, 1.0, 0.0],
    [0.0, 0.0, 0.0, 1.0]
],
  "dcmmeta_shape": [100, 100, 72, 256],
  "dcmmeta_slice_dim": 2,
  "dcmmeta_version": 0.6,
  "global": {
    "const": {
      "AcquisitionMatrix": [100, 0, 0, 100],
      "AngioFlag": "N",
      "BitsAllocated": 16,
      "BitsStored": 12,
      "BodyPartExamined": "BRAIN",
      "Columns": 900,
      "EchoNumbers": 1,
      "EchoTime": 34.0,
      "EchoTrainLength": 100,
      "FlipAngle": 90.0,
      "HighBit": 11,
      "ImageOrientationPatient": [1.0, 0.0, 0.0, 0.0, 0.97922281297031, -0.2027872840158],
      "ImagePositionPatient": [-899.32203388214, -905.07857542023, 110.38809510398],
      "ImageType": [
        "ORIGINAL",
        "PRIMARY",
        "M",
        "ND",
        "MOSAIC"
],
      "ImagedNucleus": "1H",
      "ImagingFrequency": 123.25773,
      "InPlanePhaseEncodingDirection": "COL",
      "MRAcquisitionType": "2D",
      "MagneticFieldStrength": 3.0,
      "Manufacturer": "SIEMENS",
      "ManufacturerModelName": "Prisma",
      "Modality": "MR",
      "NumberOfAverages": 1.0,
      "NumberOfPhaseEncodingSteps": 100,
      "PercentPhaseFieldOfView": 100.0,
      "PercentSampling": 100.0,
      "PerformedProcedureStepStartTime": "145918.143000",
      "PhotometricInterpretation": "MONOCHROME2",
      "PixelBandwidth": 2380.0,
      "PixelRepresentation": 0,
      "PixelSpacing": [2.0, 2.0],
      "ProtocolName": "bold_100x100_s3_2x2x2_static_256",
      "RepetitionTime": 2000.0,
      "Rows": 900,
      "SAR": 0.07232598348591,
      "SamplesPerPixel": 1,
      "ScanOptions": "FS",
      "ScanningSequence": "EP",
      "SequenceName": "*epfid2d1_100",
      "SequenceVariant": "SK",
      "SeriesDescription": "bold_100x100_s3_2x2x2_static_256",
      "SeriesNumber": 13,
      "SeriesTime": "163033.479000",
      "SliceLocation": -75.443885124218,
      "SliceThickness": 2.0,
      "SmallestImagePixelValue": 0,
      "SoftwareVersions": "syngo MR E11",
      "SpacingBetweenSlices": 1.9999999700232,
      "SpecificCharacterSet": "ISO_IR 100",
      "StudyID": "1",
      "StudyTime": "145918.084000",
      "TransmitCoilName": "Body",
      "VariableFlipAngleFlag": "N",
      "WindowCenterWidthExplanation": "Algo1",
      "dBdt": 0.0},
    "slices": {}
  },
  "time": {
    "samples": {
      "AcquisitionNumber": [1, 2, 3, 4, 5, 6, 7, 8, 9, 10, 11, 12, 13, 14, 15, 16, 17, 18, 19, 20, 21, 22, 23, 24, 25, 26, 27, 28, 29, 30, 31, 32, 33, 34, 35, 36, 37, 38, 39, 40, 41, 42, 43, 44, 45, 46, 47, 48, 49, 50, 51, 52, 53, 54, 55, 56, 57, 58, 59, 60, 61, 62, 63, 64, 65, 66, 67, 68, 69, 70, 71, 72, 73, 74, 75, 76, 77, 78, 79, 80, 81, 82, 83, 84, 85, 86, 87, 88, 89, 90, 91, 92, 93, 94, 95, 96, 97, 98, 99, 100, 101, 102, 103, 104, 105, 106, 107, 108, 109, 110, 111, 112, 113, 114, 115, 116, 117, 118, 119, 120, 121, 122, 123, 124, 125, 126, 127, 128, 129, 130, 131, 132, 133, 134, 135, 136, 137, 138, 139, 140, 141, 142, 143, 144, 145, 146, 147, 148, 149, 150, 151, 152, 153, 154, 155, 156, 157, 158, 159, 160, 161, 162, 163, 164, 165, 166, 167, 168, 169, 170, 171, 172, 173, 174, 175, 176, 177, 178, 179, 180, 181, 182, 183, 184, 185, 186, 187, 188, 189, 190, 191, 192, 193, 194, 195, 196, 197, 198, 199, 200, 201, 202, 203, 204, 205, 206, 207, 208, 209, 210, 211, 212, 213, 214, 215, 216, 217, 218, 219, 220, 221, 222, 223, 224, 225, 226, 227, 228, 229, 230, 231, 232, 233, 234, 235, 236, 237, 238, 239, 240, 241, 242, 243, 244, 245, 246, 247, 248, 249, 250, 251, 252, 253, 254, 255, 256],
      "AcquisitionTime": ["163031.030000", "163033.030000", "163035.030000", "163037.030000", "163039.030000", "163041.030000", "163043.030000", "163045.030000", "163047.030000", "163049.030000", "163051.030000", "163053.030000", "163055.030000", "163057.030000", "163059.030000", "163101.030000", "163103.030000", "163105.030000", "163107.030000", "163109.030000", "163111.030000", "163113.030000", "163115.030000", "163117.030000", "163119.030000", "163121.030000", "163123.030000", "163125.030000", "163127.030000", "163129.030000", "163131.030000", "163133.030000", "163135.030000", "163137.030000", "163139.030000", "163141.030000", "163143.030000", "163145.030000", "163147.030000", "163149.030000", "163151.030000", "163153.030000", "163155.030000", "163157.030000", "163159.030000", "163201.030000", "163203.030000", "163205.030000", "163207.030000", "163209.030000", "163211.030000", "163213.030000", "163215.030000", "163217.030000", "163219.030000", "163221.030000", "163223.030000", "163225.030000", "163227.030000", "163229.030000", "163231.030000", "163233.030000", "163235.030000", "163237.030000", "163239.030000", "163241.030000", "163243.030000", "163245.030000", "163247.030000", "163249.030000", "163251.030000", "163253.030000", "163255.030000", "163257.030000", "163259.030000", "163301.030000", "163303.030000", "163305.030000", "163307.030000", "163309.030000", "163311.030000", "163313.030000", "163315.030000", "163317.030000", "163319.030000", "163321.030000", "163323.030000", "163325.030000", "163327.030000", "163329.030000", "163331.030000", "163333.030000", "163335.030000", "163337.030000", "163339.030000", "163341.030000", "163343.030000", "163345.030000", "163347.030000", "163349.030000", "163351.030000", "163353.030000", "163355.030000", "163357.030000", "163359.030000", "163401.030000", "163403.030000", "163405.030000", "163407.030000", "163409.030000", "163411.030000", "163413.030000", "163415.030000", "163417.030000", "163419.030000", "163421.030000", "163423.030000", "163425.030000", "163427.030000", "163429.030000", "163431.030000", "163433.030000", "163435.030000", "163437.030000", "163439.030000", "163441.030000", "163443.030000", "163445.030000", "163447.030000", "163449.030000", "163451.030000", "163453.030000", "163455.030000", "163457.030000", "163459.030000", "163501.030000", "163503.030000", "163505.030000", "163507.030000", "163509.030000", "163511.030000", "163513.030000", "163515.030000", "163517.030000", "163519.030000", "163521.030000", "163523.030000", "163525.030000", "163527.030000", "163529.030000", "163531.030000", "163533.030000", "163535.030000", "163537.030000", "163539.030000", "163541.030000", "163543.030000", "163545.030000", "163547.030000", "163549.030000", "163551.030000", "163553.030000", "163555.030000", "163557.030000", "163559.030000", "163601.030000", "163603.030000", "163605.030000", "163607.030000", "163609.030000", "163611.030000", "163613.030000", "163615.030000", "163617.030000", "163619.030000", "163621.030000", "163623.030000", "163625.030000", "163627.030000", "163629.030000", "163631.030000", "163633.030000", "163635.030000", "163637.030000", "163639.030000", "163641.030000", "163643.030000", "163645.030000", "163647.030000", "163649.030000", "163651.030000", "163653.030000", "163655.030000", "163657.030000", "163659.030000", "163701.030000", "163703.030000", "163705.030000", "163707.030000", "163709.030000", "163711.030000", "163713.030000", "163715.030000", "163717.030000", "163719.030000", "163721.030000", "163723.030000", "163725.030000", "163727.030000", "163729.030000", "163731.030000", "163733.030000", "163735.030000", "163737.030000", "163739.030000", "163741.030000", "163743.030000", "163745.030000", "163747.030000", "163749.030000", "163751.030000", "163753.030000", "163755.030000", "163757.030000", "163759.030000", "163801.030000", "163803.030000", "163805.030000", "163807.030000", "163809.030000", "163811.030000", "163813.030000", "163815.030000", "163817.030000", "163819.030000", "163821.030000", "163823.030000", "163825.030000", "163827.030000", "163829.030000", "163831.030000", "163833.030000", "163835.030000", "163837.030000", "163839.030000", "163841.030000", "163843.030000", "163845.030000", "163847.030000", "163849.030000", "163851.030000", "163853.030000", "163855.030000", "163857.030000", "163859.030000", "163901.030000"],
      "ContentTime": ["163033.483000", "163034.978000", "163036.479000", "163038.978000", "163040.478000", "163042.978000", "163044.977000", "163046.977000", "163048.977000", "163050.979000", "163052.479000", "163054.978000", "163056.479000", "163058.978000", "163100.978000", "163102.977000", "163104.977000", "163106.977000", "163108.478000", "163110.978000", "163112.979000", "163114.978000", "163116.977000", "163118.478000", "163120.978000", "163122.478000", "163124.978000", "163126.979000", "163128.978000", "163130.979000", "163132.478000", "163134.977000", "163136.978000", "163138.978000", "163140.977000", "163142.979000", "163144.478000", "163146.978000", "163148.978000", "163150.479000", "163152.977000", "163154.978000", "163156.977000", "163158.978000", "163200.979000", "163202.979000", "163204.978000", "163206.979000", "163208.978000", "163210.478000", "163212.978000", "163214.477000", "163216.978000", "163218.979000", "163220.979000", "163222.980000", "163224.478000", "163226.977000", "163228.978000", "163230.977000", "163232.977000", "163234.979000", "163236.979000", "163238.479000", "163240.978000", "163242.978000", "163244.977000", "163246.477000", "163248.977000", "163250.478000", "163252.979000", "163254.478000", "163256.978000", "163258.978000", "163300.478000", "163302.978000", "163304.477000", "163306.478000", "163308.977000", "163310.478000", "163312.979000", "163314.979000", "163316.478000", "163318.977000", "163320.477000", "163322.478000", "163324.977000", "163326.979000", "163328.979000", "163330.979000", "163332.979000", "163334.479000", "163336.478000", "163338.977000", "163340.477000", "163342.477000", "163344.478000", "163346.979000", "163348.978000", "163350.478000", "163352.979000", "163354.978000", "163356.477000", "163358.977000", "163400.978000", "163402.979000", "163404.979000", "163406.478000", "163408.979000", "163410.977000", "163412.977000", "163414.977000", "163416.478000", "163418.978000", "163420.979000", "163422.478000", "163424.979000", "163426.478000", "163428.978000", "163430.978000", "163432.978000", "163434.978000", "163436.978000", "163438.979000", "163440.979000", "163442.478000", "163444.979000", "163446.978000", "163448.978000", "163450.478000", "163452.478000", "163454.978000", "163456.979000", "163458.978000", "163500.979000", "163502.979000", "163504.978000", "163506.477000", "163508.478000", "163510.477000", "163512.979000", "163514.478000", "163516.979000", "163518.979000", "163520.977000", "163522.977000", "163524.977000", "163526.978000", "163528.478000", "163530.478000", "163532.478000", "163534.478000", "163536.479000", "163538.977000", "163540.978000", "163542.978000", "163544.978000", "163546.979000", "163548.979000", "163550.978000", "163552.478000", "163554.479000", "163556.978000", "163558.978000", "163600.978000", "163602.478000", "163604.978000", "163606.979000", "163608.979000", "163610.978000", "163612.979000", "163614.977000", "163616.977000", "163618.977000", "163620.978000", "163622.979000", "163624.979000", "163626.979000", "163628.479000", "163630.978000", "163632.978000", "163634.978000", "163636.978000", "163638.978000", "163640.979000", "163642.978000", "163644.979000", "163646.478000", "163648.978000", "163650.978000", "163652.477000", "163654.978000", "163656.979000", "163658.479000", "163700.979000", "163702.979000", "163704.978000", "163706.978000", "163708.988000", "163710.977000", "163712.478000", "163714.979000", "163716.978000", "163718.479000", "163720.979000", "163722.979000", "163724.977000", "163726.977000", "163728.978000", "163730.978000", "163732.978000", "163734.978000", "163736.978000", "163738.979000", "163740.479000", "163742.977000", "163744.477000", "163746.977000", "163748.978000", "163750.979000", "163752.478000", "163754.979000", "163756.979000", "163758.978000", "163800.977000", "163802.978000", "163804.978000", "163806.979000", "163808.979000", "163810.979000", "163812.979000", "163814.479000", "163816.977000", "163818.978000", "163820.978000", "163822.978000", "163824.979000", "163826.979000", "163828.979000", "163830.979000", "163832.978000", "163834.478000", "163836.978000", "163838.978000", "163840.978000", "163842.979000", "163844.979000", "163846.979000", "163848.980000", "163850.978000", "163852.477000", "163854.978000", "163856.978000", "163858.977000", "163900.979000", "163902.445000"],
      "InstanceCreationTime": ["163033.483000", "163034.978000", "163036.479000", "163038.978000", "163040.478000", "163042.978000", "163044.977000", "163046.977000", "163048.977000", "163050.979000", "163052.479000", "163054.978000", "163056.479000", "163058.978000", "163100.978000", "163102.977000", "163104.977000", "163106.977000", "163108.478000", "163110.978000", "163112.979000", "163114.978000", "163116.977000", "163118.478000", "163120.978000", "163122.478000", "163124.978000", "163126.979000", "163128.978000", "163130.979000", "163132.478000", "163134.977000", "163136.978000", "163138.978000", "163140.977000", "163142.979000", "163144.478000", "163146.978000", "163148.978000", "163150.479000", "163152.977000", "163154.978000", "163156.977000", "163158.978000", "163200.979000", "163202.979000", "163204.978000", "163206.979000", "163208.978000", "163210.478000", "163212.978000", "163214.477000", "163216.978000", "163218.979000", "163220.979000", "163222.980000", "163224.478000", "163226.977000", "163228.978000", "163230.977000", "163232.977000", "163234.979000", "163236.979000", "163238.479000", "163240.978000", "163242.978000", "163244.977000", "163246.477000", "163248.977000", "163250.478000", "163252.979000", "163254.478000", "163256.978000", "163258.978000", "163300.478000", "163302.978000", "163304.477000", "163306.478000", "163308.977000", "163310.478000", "163312.979000", "163314.979000", "163316.478000", "163318.977000", "163320.477000", "163322.478000", "163324.977000", "163326.979000", "163328.979000", "163330.979000", "163332.979000", "163334.479000", "163336.478000", "163338.977000", "163340.477000", "163342.477000", "163344.478000", "163346.979000", "163348.978000", "163350.478000", "163352.979000", "163354.978000", "163356.477000", "163358.977000", "163400.978000", "163402.979000", "163404.979000", "163406.478000", "163408.979000", "163410.977000", "163412.977000", "163414.977000", "163416.478000", "163418.978000", "163420.979000", "163422.478000", "163424.979000", "163426.478000", "163428.978000", "163430.978000", "163432.978000", "163434.978000", "163436.978000", "163438.979000", "163440.979000", "163442.478000", "163444.979000", "163446.978000", "163448.978000", "163450.478000", "163452.478000", "163454.978000", "163456.979000", "163458.978000", "163500.979000", "163502.979000", "163504.978000", "163506.477000", "163508.478000", "163510.477000", "163512.979000", "163514.478000", "163516.979000", "163518.979000", "163520.977000", "163522.977000", "163524.977000", "163526.978000", "163528.478000", "163530.478000", "163532.478000", "163534.478000", "163536.479000", "163538.977000", "163540.978000", "163542.978000", "163544.978000", "163546.979000", "163548.979000", "163550.978000", "163552.478000", "163554.479000", "163556.978000", "163558.978000", "163600.978000", "163602.478000", "163604.978000", "163606.979000", "163608.979000", "163610.978000", "163612.979000", "163614.977000", "163616.977000", "163618.977000", "163620.978000", "163622.979000", "163624.979000", "163626.979000", "163628.479000", "163630.978000", "163632.978000", "163634.978000", "163636.978000", "163638.978000", "163640.979000", "163642.978000", "163644.979000", "163646.478000", "163648.978000", "163650.978000", "163652.477000", "163654.978000", "163656.979000", "163658.479000", "163700.979000", "163702.979000", "163704.978000", "163706.978000", "163708.988000", "163710.977000", "163712.478000", "163714.979000", "163716.978000", "163718.479000", "163720.979000", "163722.979000", "163724.977000", "163726.977000", "163728.978000", "163730.978000", "163732.978000", "163734.978000", "163736.978000", "163738.979000", "163740.479000", "163742.977000", "163744.477000", "163746.977000", "163748.978000", "163750.979000", "163752.478000", "163754.979000", "163756.979000", "163758.978000", "163800.977000", "163802.978000", "163804.978000", "163806.979000", "163808.979000", "163810.979000", "163812.979000", "163814.479000", "163816.977000", "163818.978000", "163820.978000", "163822.978000", "163824.979000", "163826.979000", "163828.979000", "163830.979000", "163832.978000", "163834.478000", "163836.978000", "163838.978000", "163840.978000", "163842.979000", "163844.979000", "163846.979000", "163848.980000", "163850.978000", "163852.477000", "163854.978000", "163856.978000", "163858.977000", "163900.979000", "163902.445000"],
      "InstanceNumber": [1, 2, 3, 4, 5, 6, 7, 8, 9, 10, 11, 12, 13, 14, 15, 16, 17, 18, 19, 20, 21, 22, 23, 24, 25, 26, 27, 28, 29, 30, 31, 32, 33, 34, 35, 36, 37, 38, 39, 40, 41, 42, 43, 44, 45, 46, 47, 48, 49, 50, 51, 52, 53, 54, 55, 56, 57, 58, 59, 60, 61, 62, 63, 64, 65, 66, 67, 68, 69, 70, 71, 72, 73, 74, 75, 76, 77, 78, 79, 80, 81, 82, 83, 84, 85, 86, 87, 88, 89, 90, 91, 92, 93, 94, 95, 96, 97, 98, 99, 100, 101, 102, 103, 104, 105, 106, 107, 108, 109, 110, 111, 112, 113, 114, 115, 116, 117, 118, 119, 120, 121, 122, 123, 124, 125, 126, 127, 128, 129, 130, 131, 132, 133, 134, 135, 136, 137, 138, 139, 140, 141, 142, 143, 144, 145, 146, 147, 148, 149, 150, 151, 152, 153, 154, 155, 156, 157, 158, 159, 160, 161, 162, 163, 164, 165, 166, 167, 168, 169, 170, 171, 172, 173, 174, 175, 176, 177, 178, 179, 180, 181, 182, 183, 184, 185, 186, 187, 188, 189, 190, 191, 192, 193, 194, 195, 196, 197, 198, 199, 200, 201, 202, 203, 204, 205, 206, 207, 208, 209, 210, 211, 212, 213, 214, 215, 216, 217, 218, 219, 220, 221, 222, 223, 224, 225, 226, 227, 228, 229, 230, 231, 232, 233, 234, 235, 236, 237, 238, 239, 240, 241, 242, 243, 244, 245, 246, 247, 248, 249, 250, 251, 252, 253, 254, 255, 256],
      "LargestImagePixelValue": [2673, 2775, 2725, 2733, 2773, 2679, 2748, 2782, 2773, 2566, 2854, 2683, 2775, 2773, 2823, 2684, 2753, 2668, 2825, 2857, 2839, 2872, 2823, 2975, 2889, 2734, 2817, 2764, 2729, 2614, 2728, 2843, 2815, 2816, 2942, 2728, 2799, 2871, 2779, 2627, 2879, 3022, 2883, 2878, 2930, 2758, 3093, 2831, 2784, 2750, 2744, 2683, 2661, 2693, 2760, 2764, 2853, 2765, 2779, 2804, 2773, 2878, 2727, 2857, 2798, 2764, 2748, 2743, 2770, 2821, 2901, 2911, 2800, 2823, 2803, 2742, 2836, 2760, 2863, 2900, 2740, 2823, 2757, 2774, 2746, 2808, 2853, 2786, 2802, 2844, 2689, 2711, 2734, 2932, 2811, 2910, 2802, 2670, 2811, 2757, 2714, 2752, 2787, 2897, 2788, 2719, 2817, 2803, 2789, 2872, 2704, 2727, 2688, 2759, 2730, 2731, 2738, 2760, 2746, 2786, 2788, 2799, 2775, 2667, 2694, 2805, 2815, 2990, 2626, 2758, 2890, 2931, 2926, 2898, 2773, 2797, 2679, 2786, 2761, 2785, 2915, 2893, 2775, 2883, 2760, 2804, 2699, 2692, 2737, 2758, 2738, 2801, 2705, 2704, 2823, 2749, 2779, 2579, 2750, 2891, 2779, 2690, 2699, 2723, 2727, 2827, 2813, 2904, 2831, 2793, 2756, 2803, 2860, 2610, 2808, 2907, 2936, 2814, 2859, 2701, 2924, 2535, 2824, 2776, 2865, 2789, 2781, 2937, 2916, 2716, 2838, 2836, 3068, 2682, 2700, 2489, 2589, 2762, 2631, 2691, 2809, 2618, 2682, 2844, 2510, 2786, 2876, 2677, 2747, 2740, 2743, 2860, 2880, 2803, 2631, 2822, 2761, 2756, 2819, 2927, 2822, 2829, 2766, 2901, 2846, 2799, 2854, 3008, 2847, 2797, 2752, 2876, 2851, 2854, 2775, 2841, 2897, 2765, 2840, 2803, 2799, 2501, 2788, 2802, 2762, 2737, 2703, 2953, 2774, 3001, 2797, 2804, 2803, 2903, 2952, 2820],
      "WindowCenter": [752.0, 753.0, 753.0, 753.0, 753.0, 752.0, 753.0, 753.0, 753.0, 752.0, 755.0, 752.0, 752.0, 752.0, 755.0, 752.0, 753.0, 751.0, 753.0, 754.0, 755.0, 755.0, 755.0, 755.0, 754.0, 753.0, 754.0, 753.0, 752.0, 751.0, 752.0, 753.0, 754.0, 754.0, 756.0, 753.0, 754.0, 755.0, 753.0, 752.0, 758.0, 759.0, 756.0, 754.0, 754.0, 754.0, 757.0, 755.0, 754.0, 753.0, 753.0, 751.0, 752.0, 751.0, 752.0, 752.0, 754.0, 754.0, 756.0, 755.0, 753.0, 753.0, 754.0, 755.0, 753.0, 752.0, 752.0, 751.0, 753.0, 754.0, 756.0, 755.0, 754.0, 755.0, 755.0, 753.0, 754.0, 753.0, 755.0, 754.0, 752.0, 755.0, 754.0, 752.0, 753.0, 753.0, 755.0, 754.0, 755.0, 754.0, 752.0, 751.0, 751.0, 755.0, 756.0, 755.0, 753.0, 751.0, 753.0, 752.0, 752.0, 753.0, 753.0, 754.0, 752.0, 753.0, 755.0, 754.0, 754.0, 753.0, 752.0, 752.0, 752.0, 753.0, 752.0, 752.0, 751.0, 752.0, 752.0, 753.0, 754.0, 754.0, 754.0, 751.0, 752.0, 753.0, 754.0, 755.0, 752.0, 755.0, 756.0, 755.0, 754.0, 754.0, 754.0, 753.0, 750.0, 752.0, 754.0, 753.0, 754.0, 754.0, 755.0, 755.0, 753.0, 752.0, 751.0, 751.0, 752.0, 752.0, 753.0, 753.0, 751.0, 751.0, 754.0, 753.0, 752.0, 750.0, 755.0, 755.0, 752.0, 750.0, 751.0, 751.0, 752.0, 753.0, 755.0, 755.0, 754.0, 752.0, 753.0, 754.0, 753.0, 750.0, 753.0, 754.0, 754.0, 755.0, 758.0, 754.0, 754.0, 749.0, 752.0, 751.0, 753.0, 752.0, 754.0, 755.0, 755.0, 753.0, 756.0, 756.0, 756.0, 752.0, 750.0, 746.0, 747.0, 749.0, 751.0, 754.0, 754.0, 751.0, 751.0, 753.0, 749.0, 752.0, 755.0, 752.0, 752.0, 752.0, 754.0, 754.0, 753.0, 753.0, 753.0, 755.0, 753.0, 752.0, 755.0, 756.0, 754.0, 753.0, 754.0, 756.0, 754.0, 753.0, 755.0, 756.0, 753.0, 752.0, 752.0, 754.0, 754.0, 754.0, 754.0, 754.0, 754.0, 753.0, 754.0, 755.0, 753.0, 748.0, 751.0, 752.0, 752.0, 751.0, 752.0, 755.0, 752.0, 754.0, 752.0, 752.0, 755.0, 755.0, 755.0, 753.0],
      "WindowWidth": [1594.0, 1596.0, 1595.0, 1595.0, 1595.0, 1595.0, 1597.0, 1596.0, 1596.0, 1595.0, 1602.0, 1593.0, 1595.0, 1594.0, 1600.0, 1595.0, 1595.0, 1590.0, 1597.0, 1598.0, 1600.0, 1602.0, 1600.0, 1601.0, 1600.0, 1597.0, 1599.0, 1597.0, 1595.0, 1592.0, 1595.0, 1597.0, 1599.0, 1599.0, 1604.0, 1597.0, 1600.0, 1600.0, 1596.0, 1593.0, 1608.0, 1612.0, 1605.0, 1599.0, 1599.0, 1598.0, 1607.0, 1601.0, 1599.0, 1596.0, 1596.0, 1592.0, 1594.0, 1593.0, 1594.0, 1594.0, 1598.0, 1600.0, 1604.0, 1602.0, 1597.0, 1597.0, 1598.0, 1600.0, 1597.0, 1594.0, 1594.0, 1593.0, 1597.0, 1600.0, 1603.0, 1601.0, 1600.0, 1600.0, 1600.0, 1597.0, 1599.0, 1597.0, 1602.0, 1599.0, 1594.0, 1600.0, 1598.0, 1594.0, 1595.0, 1597.0, 1600.0, 1599.0, 1601.0, 1597.0, 1593.0, 1591.0, 1593.0, 1602.0, 1603.0, 1601.0, 1595.0, 1591.0, 1595.0, 1595.0, 1595.0, 1597.0, 1597.0, 1598.0, 1594.0, 1596.0, 1600.0, 1598.0, 1598.0, 1596.0, 1593.0, 1595.0, 1595.0, 1596.0, 1595.0, 1593.0, 1591.0, 1595.0, 1594.0, 1596.0, 1598.0, 1600.0, 1599.0, 1591.0, 1595.0, 1597.0, 1599.0, 1602.0, 1594.0, 1601.0, 1604.0, 1601.0, 1599.0, 1598.0, 1598.0, 1595.0, 1590.0, 1594.0, 1598.0, 1597.0, 1597.0, 1598.0, 1601.0, 1601.0, 1597.0, 1595.0, 1591.0, 1591.0, 1593.0, 1594.0, 1596.0, 1595.0, 1590.0, 1592.0, 1600.0, 1596.0, 1594.0, 1588.0, 1600.0, 1600.0, 1594.0, 1589.0, 1591.0, 1592.0, 1593.0, 1595.0, 1601.0, 1601.0, 1597.0, 1594.0, 1597.0, 1599.0, 1597.0, 1590.0, 1597.0, 1597.0, 1599.0, 1602.0, 1608.0, 1599.0, 1598.0, 1587.0, 1593.0, 1592.0, 1596.0, 1594.0, 1598.0, 1601.0, 1600.0, 1596.0, 1604.0, 1603.0, 1604.0, 1593.0, 1589.0, 1580.0, 1582.0, 1587.0, 1591.0, 1598.0, 1598.0, 1590.0, 1591.0, 1595.0, 1586.0, 1593.0, 1600.0, 1594.0, 1593.0, 1594.0, 1597.0, 1597.0, 1597.0, 1597.0, 1596.0, 1599.0, 1596.0, 1594.0, 1599.0, 1602.0, 1598.0, 1596.0, 1599.0, 1603.0, 1597.0, 1595.0, 1602.0, 1604.0, 1596.0, 1593.0, 1592.0, 1597.0, 1599.0, 1598.0, 1597.0, 1599.0, 1598.0, 1595.0, 1599.0, 1600.0, 1596.0, 1583.0, 1590.0, 1593.0, 1593.0, 1592.0, 1595.0, 1601.0, 1593.0, 1598.0, 1593.0, 1595.0, 1600.0, 1601.0, 1600.0, 1596.0]
    },
    "slices": {}
  }
}