{
 "AcquisitionMatrixPE": 100,
 "AcquisitionNumber": 1,
 "AcquisitionTime": "16:40:7.802500",
 "BandwidthPerPixelPhaseEncode": 18.519,
 "BaseResolution": 100,
 "BodyPartExamined": "BRAIN",
 "ConsistencyInfo": "N4_VE11C_LATEST_20160120",
 "ConversionSoftware": "dcm2niix",
 "ConversionSoftwareVersion": "v1.0.20180622 GCC4.9.2",
 "DerivedVendorReportedEchoSpacing": 0.000539986,
 "DeviceSerialNumber": "166078",
 "DwellTime": 2.1e-06,
 "EchoTime": 0.034,
 "EchoTrainLength": 100,
 "EffectiveEchoSpacing": 0.000539986,
 "FlipAngle": 90,
 "ImageOrientationPatientDICOM": [
  1,
  0,
  0,
  0,
  0.979223,
  -0.202787
 ],
 "ImageType": [
  "ORIGINAL",
  "PRIMARY",
  "M",
  "ND",
  "MOSAIC"
 ],
 "InPlanePhaseEncodingDirectionDICOM": "COL",
 "InstitutionAddress": "Street_StreetNo_Bei_Jing_District_CN_ZIP",
 "InstitutionName": "BeiJing_Normal_University",
 "InstitutionalDepartmentName": "Department",
 "MRAcquisitionType": "2D",
 "MagneticFieldStrength": 3,
 "Manufacturer": "Siemens",
 "ManufacturersModelName": "Prisma",
 "Modality": "MR",
 "MultibandAccelerationFactor": 3,
 "PartialFourier": 1,
 "PatientPosition": "HFS",
 "PercentPhaseFOV": 100,
 "PhaseEncodingDirection": "j-",
 "PhaseEncodingSteps": 100,
 "PhaseResolution": 1,
 "PixelBandwidth": 2380,
 "ProcedureStepDescription": "BNU_P2018_64CH_Zhen.ZongLei",
 "ProtocolName": "bold_100x100_s3_2x2x2_static_256",
 "PulseSequenceDetails": "%SiemensSeq%_ep2d_bold",
 "ReceiveCoilActiveElements": "HC1-7;NC1",
 "ReceiveCoilName": "HeadNeck_64",
 "ReconMatrixPE": 100,
 "RepetitionTime": 2,
 "SAR": 0.072326,
 "ScanOptions": "FS",
 "ScanningSequence": "EP",
 "SequenceName": "_epfid2d1_100",
 "SequenceVariant": "SK",
 "SeriesDescription": "bold_100x100_s3_2x2x2_static_256",
 "SeriesNumber": 14,
 "ShimSetting": [
  -5461,
  -11506,
  -1281,
  266,
  -49,
  -321,
  -80,
  58
 ],
 "SliceThickness": 2,
 "SliceTiming": [
  1.485,
  0,
  0.99,
  0.0825,
  1.0725,
  0.165,
  1.155,
  0.2475,
  1.2375,
  0.33,
  1.32,
  0.4125,
  1.4025,
  0.5775,
  1.5675,
  0.66,
  1.65,
  0.7425,
  1.7325,
  0.825,
  1.815,
  0.9075,
  1.8975,
  0.495,
  1.485,
  0,
  0.99,
  0.0825,
  1.0725,
  0.165,
  1.155,
  0.2475,
  1.2375,
  0.33,
  1.32,
  0.4125,
  1.4025,
  0.5775,
  1.5675,
  0.66,
  1.65,
  0.7425,
  1.7325,
  0.825,
  1.815,
  0.9075,
  1.8975,
  0.495,
  1.485,
  0,
  0.99,
  0.0825,
  1.0725,
  0.165,
  1.155,
  0.2475,
  1.2375,
  0.33,
  1.32,
  0.4125,
  1.4025,
  0.5775,
  1.5675,
  0.66,
  1.65,
  0.7425,
  1.7325,
  0.825,
  1.815,
  0.9075,
  1.8975,
  0.495
 ],
 "SoftwareVersions": "syngo_MR_E11",
 "SpacingBetweenSlices": 2,
 "StationName": "AWP166078",
 "TaskName": "imagenet",
 "TotalReadoutTime": 0.0534586,
 "TxRefAmp": 221.623,
 "dcmmeta_affine": [
  [
   -2.0,
   0.0,
   0.0,
   99.32203674316406
  ],
  [
   0.0,
   1.95844566822052,
   -0.4055745601654053,
   -72.185791015625
  ],
  [
   0.0,
   0.4055745601654053,
   1.9584455490112305,
   -91.99361419677734
  ],
  [
   0.0,
   0.0,
   0.0,
   1.0
  ]
 ],
 "dcmmeta_reorient_transform": [
  [
   0.0,
   -1.0,
   0.0,
   99.0
  ],
  [
   1.0,
   0.0,
   0.0,
   0.0
  ],
  [
   0.0,
   0.0,
   1.0,
   0.0
  ],
  [
   0.0,
   0.0,
   0.0,
   1.0
  ]
 ],
 "dcmmeta_shape": [
  100,
  100,
  72,
  256
 ],
 "dcmmeta_slice_dim": 2,
 "dcmmeta_version": 0.6,
 "global": {
  "const": {
   "AcquisitionMatrix": [
    100,
    0,
    0,
    100
   ],
   "AngioFlag": "N",
   "BitsAllocated": 16,
   "BitsStored": 12,
   "BodyPartExamined": "BRAIN",
   "Columns": 900,
   "EchoNumbers": 1,
   "EchoTime": 34.0,
   "EchoTrainLength": 100,
   "FlipAngle": 90.0,
   "HighBit": 11,
   "ImageOrientationPatient": [
    1.0,
    0.0,
    0.0,
    0.0,
    0.97922281297031,
    -0.2027872840158
   ],
   "ImagePositionPatient": [
    -899.32203388214,
    -905.07857542023,
    110.38809510398
   ],
   "ImageType": [
    "ORIGINAL",
    "PRIMARY",
    "M",
    "ND",
    "MOSAIC"
   ],
   "ImagedNucleus": "1H",
   "ImagingFrequency": 123.257727,
   "InPlanePhaseEncodingDirection": "COL",
   "MRAcquisitionType": "2D",
   "MagneticFieldStrength": 3.0,
   "Manufacturer": "SIEMENS",
   "ManufacturerModelName": "Prisma",
   "Modality": "MR",
   "NumberOfAverages": 1.0,
   "NumberOfPhaseEncodingSteps": 100,
   "PercentPhaseFieldOfView": 100.0,
   "PercentSampling": 100.0,
   "PerformedProcedureStepStartTime": "145918.143000",
   "PhotometricInterpretation": "MONOCHROME2",
   "PixelBandwidth": 2380.0,
   "PixelRepresentation": 0,
   "PixelSpacing": [
    2.0,
    2.0
   ],
   "ProtocolName": "bold_100x100_s3_2x2x2_static_256",
   "RepetitionTime": 2000.0,
   "Rows": 900,
   "SAR": 0.07232598348591,
   "SamplesPerPixel": 1,
   "ScanOptions": "FS",
   "ScanningSequence": "EP",
   "SequenceName": "*epfid2d1_100",
   "SequenceVariant": "SK",
   "SeriesDescription": "bold_100x100_s3_2x2x2_static_256",
   "SeriesNumber": 14,
   "SeriesTime": "164010.441000",
   "SliceLocation": -75.443885124218,
   "SliceThickness": 2.0,
   "SmallestImagePixelValue": 0,
   "SoftwareVersions": "syngo MR E11",
   "SpacingBetweenSlices": 1.9999999700232,
   "SpecificCharacterSet": "ISO_IR 100",
   "StudyID": "1",
   "StudyTime": "145918.084000",
   "TransmitCoilName": "Body",
   "VariableFlipAngleFlag": "N",
   "WindowCenterWidthExplanation": "Algo1",
   "dBdt": 0.0
  },
  "slices": {}
 },
 "time": {
  "samples": {
   "AcquisitionNumber": [
    1,
    2,
    3,
    4,
    5,
    6,
    7,
    8,
    9,
    10,
    11,
    12,
    13,
    14,
    15,
    16,
    17,
    18,
    19,
    20,
    21,
    22,
    23,
    24,
    25,
    26,
    27,
    28,
    29,
    30,
    31,
    32,
    33,
    34,
    35,
    36,
    37,
    38,
    39,
    40,
    41,
    42,
    43,
    44,
    45,
    46,
    47,
    48,
    49,
    50,
    51,
    52,
    53,
    54,
    55,
    56,
    57,
    58,
    59,
    60,
    61,
    62,
    63,
    64,
    65,
    66,
    67,
    68,
    69,
    70,
    71,
    72,
    73,
    74,
    75,
    76,
    77,
    78,
    79,
    80,
    81,
    82,
    83,
    84,
    85,
    86,
    87,
    88,
    89,
    90,
    91,
    92,
    93,
    94,
    95,
    96,
    97,
    98,
    99,
    100,
    101,
    102,
    103,
    104,
    105,
    106,
    107,
    108,
    109,
    110,
    111,
    112,
    113,
    114,
    115,
    116,
    117,
    118,
    119,
    120,
    121,
    122,
    123,
    124,
    125,
    126,
    127,
    128,
    129,
    130,
    131,
    132,
    133,
    134,
    135,
    136,
    137,
    138,
    139,
    140,
    141,
    142,
    143,
    144,
    145,
    146,
    147,
    148,
    149,
    150,
    151,
    152,
    153,
    154,
    155,
    156,
    157,
    158,
    159,
    160,
    161,
    162,
    163,
    164,
    165,
    166,
    167,
    168,
    169,
    170,
    171,
    172,
    173,
    174,
    175,
    176,
    177,
    178,
    179,
    180,
    181,
    182,
    183,
    184,
    185,
    186,
    187,
    188,
    189,
    190,
    191,
    192,
    193,
    194,
    195,
    196,
    197,
    198,
    199,
    200,
    201,
    202,
    203,
    204,
    205,
    206,
    207,
    208,
    209,
    210,
    211,
    212,
    213,
    214,
    215,
    216,
    217,
    218,
    219,
    220,
    221,
    222,
    223,
    224,
    225,
    226,
    227,
    228,
    229,
    230,
    231,
    232,
    233,
    234,
    235,
    236,
    237,
    238,
    239,
    240,
    241,
    242,
    243,
    244,
    245,
    246,
    247,
    248,
    249,
    250,
    251,
    252,
    253,
    254,
    255,
    256
   ],
   "AcquisitionTime": [
    "164007.802500",
    "164009.802500",
    "164011.802500",
    "164013.802500",
    "164015.802500",
    "164017.802500",
    "164019.802500",
    "164021.802500",
    "164023.802500",
    "164025.802500",
    "164027.802500",
    "164029.802500",
    "164031.802500",
    "164033.802500",
    "164035.802500",
    "164037.802500",
    "164039.802500",
    "164041.802500",
    "164043.802500",
    "164045.802500",
    "164047.802500",
    "164049.802500",
    "164051.802500",
    "164053.802500",
    "164055.802500",
    "164057.802500",
    "164059.802500",
    "164101.802500",
    "164103.802500",
    "164105.802500",
    "164107.802500",
    "164109.802500",
    "164111.802500",
    "164113.802500",
    "164115.802500",
    "164117.802500",
    "164119.802500",
    "164121.802500",
    "164123.802500",
    "164125.802500",
    "164127.802500",
    "164129.802500",
    "164131.802500",
    "164133.802500",
    "164135.802500",
    "164137.802500",
    "164139.802500",
    "164141.802500",
    "164143.802500",
    "164145.802500",
    "164147.802500",
    "164149.802500",
    "164151.802500",
    "164153.802500",
    "164155.802500",
    "164157.802500",
    "164159.802500",
    "164201.802500",
    "164203.802500",
    "164205.802500",
    "164207.802500",
    "164209.802500",
    "164211.802500",
    "164213.802500",
    "164215.802500",
    "164217.802500",
    "164219.802500",
    "164221.802500",
    "164223.802500",
    "164225.802500",
    "164227.802500",
    "164229.802500",
    "164231.802500",
    "164233.802500",
    "164235.802500",
    "164237.802500",
    "164239.802500",
    "164241.802500",
    "164243.802500",
    "164245.802500",
    "164247.802500",
    "164249.802500",
    "164251.802500",
    "164253.802500",
    "164255.802500",
    "164257.802500",
    "164259.802500",
    "164301.802500",
    "164303.802500",
    "164305.802500",
    "164307.802500",
    "164309.802500",
    "164311.802500",
    "164313.802500",
    "164315.802500",
    "164317.802500",
    "164319.802500",
    "164321.802500",
    "164323.802500",
    "164325.802500",
    "164327.802500",
    "164329.802500",
    "164331.802500",
    "164333.802500",
    "164335.802500",
    "164337.802500",
    "164339.802500",
    "164341.802500",
    "164343.802500",
    "164345.802500",
    "164347.802500",
    "164349.802500",
    "164351.802500",
    "164353.802500",
    "164355.802500",
    "164357.802500",
    "164359.802500",
    "164401.802500",
    "164403.802500",
    "164405.802500",
    "164407.802500",
    "164409.802500",
    "164411.802500",
    "164413.802500",
    "164415.802500",
    "164417.802500",
    "164419.802500",
    "164421.802500",
    "164423.802500",
    "164425.802500",
    "164427.802500",
    "164429.802500",
    "164431.802500",
    "164433.802500",
    "164435.802500",
    "164437.802500",
    "164439.802500",
    "164441.802500",
    "164443.802500",
    "164445.802500",
    "164447.802500",
    "164449.802500",
    "164451.802500",
    "164453.802500",
    "164455.802500",
    "164457.802500",
    "164459.802500",
    "164501.802500",
    "164503.802500",
    "164505.802500",
    "164507.802500",
    "164509.802500",
    "164511.802500",
    "164513.802500",
    "164515.802500",
    "164517.802500",
    "164519.802500",
    "164521.802500",
    "164523.802500",
    "164525.802500",
    "164527.802500",
    "164529.802500",
    "164531.802500",
    "164533.802500",
    "164535.802500",
    "164537.802500",
    "164539.802500",
    "164541.802500",
    "164543.802500",
    "164545.802500",
    "164547.802500",
    "164549.802500",
    "164551.802500",
    "164553.802500",
    "164555.802500",
    "164557.802500",
    "164559.802500",
    "164601.802500",
    "164603.802500",
    "164605.802500",
    "164607.802500",
    "164609.802500",
    "164611.802500",
    "164613.802500",
    "164615.802500",
    "164617.802500",
    "164619.802500",
    "164621.802500",
    "164623.802500",
    "164625.802500",
    "164627.802500",
    "164629.802500",
    "164631.802500",
    "164633.802500",
    "164635.802500",
    "164637.802500",
    "164639.802500",
    "164641.802500",
    "164643.802500",
    "164645.802500",
    "164647.802500",
    "164649.802500",
    "164651.802500",
    "164653.802500",
    "164655.802500",
    "164657.802500",
    "164659.802500",
    "164701.802500",
    "164703.802500",
    "164705.802500",
    "164707.802500",
    "164709.802500",
    "164711.802500",
    "164713.802500",
    "164715.802500",
    "164717.802500",
    "164719.802500",
    "164721.802500",
    "164723.802500",
    "164725.802500",
    "164727.802500",
    "164729.802500",
    "164731.802500",
    "164733.802500",
    "164735.802500",
    "164737.802500",
    "164739.802500",
    "164741.802500",
    "164743.802500",
    "164745.802500",
    "164747.802500",
    "164749.802500",
    "164751.802500",
    "164753.802500",
    "164755.802500",
    "164757.802500",
    "164759.802500",
    "164801.802500",
    "164803.802500",
    "164805.802500",
    "164807.802500",
    "164809.802500",
    "164811.802500",
    "164813.802500",
    "164815.802500",
    "164817.802500",
    "164819.802500",
    "164821.802500",
    "164823.802500",
    "164825.802500",
    "164827.802500",
    "164829.802500",
    "164831.802500",
    "164833.802500",
    "164835.802500",
    "164837.802500"
   ],
   "ContentTime": [
    "164010.445000",
    "164011.940000",
    "164013.941000",
    "164015.939000",
    "164017.940000",
    "164019.939000",
    "164021.940000",
    "164023.939000",
    "164025.939000",
    "164027.940000",
    "164029.940000",
    "164031.941000",
    "164033.940000",
    "164035.940000",
    "164037.939000",
    "164039.939000",
    "164041.940000",
    "164043.940000",
    "164045.940000",
    "164047.941000",
    "164049.939000",
    "164051.939000",
    "164053.939000",
    "164055.940000",
    "164057.940000",
    "164059.939000",
    "164101.940000",
    "164103.940000",
    "164105.940000",
    "164107.940000",
    "164109.940000",
    "164111.939000",
    "164113.940000",
    "164115.939000",
    "164117.940000",
    "164119.940000",
    "164121.941000",
    "164123.941000",
    "164125.939000",
    "164127.940000",
    "164129.939000",
    "164131.939000",
    "164133.940000",
    "164135.940000",
    "164137.940000",
    "164139.941000",
    "164141.940000",
    "164143.939000",
    "164145.939000",
    "164147.939000",
    "164149.939000",
    "164151.939000",
    "164153.939000",
    "164155.941000",
    "164157.941000",
    "164159.940000",
    "164201.939000",
    "164203.939000",
    "164205.939000",
    "164207.939000",
    "164209.940000",
    "164211.941000",
    "164213.940000",
    "164215.940000",
    "164217.939000",
    "164219.939000",
    "164221.939000",
    "164223.940000",
    "164225.940000",
    "164227.939000",
    "164229.940000",
    "164231.941000",
    "164233.940000",
    "164235.939000",
    "164237.939000",
    "164239.939000",
    "164241.939000",
    "164243.940000",
    "164245.940000",
    "164247.941000",
    "164249.940000",
    "164251.940000",
    "164253.940000",
    "164255.940000",
    "164257.939000",
    "164259.939000",
    "164301.939000",
    "164303.941000",
    "164305.941000",
    "164307.941000",
    "164309.940000",
    "164311.939000",
    "164313.940000",
    "164315.939000",
    "164317.940000",
    "164319.940000",
    "164321.940000",
    "164323.941000",
    "164325.940000",
    "164327.939000",
    "164329.940000",
    "164331.940000",
    "164333.940000",
    "164335.939000",
    "164337.940000",
    "164339.941000",
    "164341.941000",
    "164343.941000",
    "164345.940000",
    "164347.939000",
    "164349.940000",
    "164351.939000",
    "164353.939000",
    "164355.939000",
    "164357.940000",
    "164359.941000",
    "164401.941000",
    "164403.939000",
    "164405.939000",
    "164407.940000",
    "164409.940000",
    "164411.939000",
    "164413.940000",
    "164415.941000",
    "164417.941000",
    "164419.939000",
    "164421.939000",
    "164423.939000",
    "164425.940000",
    "164427.940000",
    "164429.939000",
    "164431.941000",
    "164433.940000",
    "164435.941000",
    "164437.939000",
    "164439.939000",
    "164441.940000",
    "164443.940000",
    "164445.939000",
    "164447.939000",
    "164449.940000",
    "164451.941000",
    "164453.940000",
    "164455.939000",
    "164457.940000",
    "164459.940000",
    "164501.940000",
    "164503.940000",
    "164505.939000",
    "164507.941000",
    "164509.941000",
    "164511.940000",
    "164513.940000",
    "164515.940000",
    "164517.940000",
    "164519.939000",
    "164521.940000",
    "164523.941000",
    "164525.940000",
    "164527.941000",
    "164529.940000",
    "164531.939000",
    "164533.939000",
    "164535.939000",
    "164537.940000",
    "164539.940000",
    "164541.941000",
    "164543.941000",
    "164545.940000",
    "164547.940000",
    "164549.940000",
    "164551.940000",
    "164553.939000",
    "164555.942000",
    "164557.939000",
    "164559.940000",
    "164601.941000",
    "164603.943000",
    "164605.939000",
    "164607.940000",
    "164609.940000",
    "164611.940000",
    "164613.940000",
    "164615.940000",
    "164617.941000",
    "164619.941000",
    "164621.941000",
    "164623.953000",
    "164625.940000",
    "164627.939000",
    "164629.940000",
    "164631.940000",
    "164633.940000",
    "164635.941000",
    "164637.941000",
    "164639.940000",
    "164641.940000",
    "164643.940000",
    "164645.939000",
    "164647.939000",
    "164649.939000",
    "164651.941000",
    "164653.941000",
    "164655.941000",
    "164657.940000",
    "164659.939000",
    "164701.942000",
    "164703.939000",
    "164705.940000",
    "164707.940000",
    "164709.940000",
    "164711.941000",
    "164713.940000",
    "164715.940000",
    "164717.940000",
    "164719.940000",
    "164721.940000",
    "164723.939000",
    "164725.940000",
    "164727.940000",
    "164729.941000",
    "164731.941000",
    "164733.940000",
    "164735.940000",
    "164737.940000",
    "164739.940000",
    "164741.939000",
    "164743.940000",
    "164745.940000",
    "164747.940000",
    "164749.939000",
    "164751.940000",
    "164753.940000",
    "164755.940000",
    "164757.940000",
    "164759.939000",
    "164801.940000",
    "164803.940000",
    "164805.941000",
    "164807.940000",
    "164809.940000",
    "164811.939000",
    "164813.939000",
    "164815.940000",
    "164817.939000",
    "164819.941000",
    "164821.940000",
    "164823.941000",
    "164825.940000",
    "164827.940000",
    "164829.939000",
    "164831.940000",
    "164833.940000",
    "164835.940000",
    "164837.941000",
    "164839.721000"
   ],
   "InstanceCreationTime": [
    "164010.445000",
    "164011.940000",
    "164013.941000",
    "164015.939000",
    "164017.940000",
    "164019.939000",
    "164021.940000",
    "164023.939000",
    "164025.939000",
    "164027.940000",
    "164029.940000",
    "164031.941000",
    "164033.940000",
    "164035.940000",
    "164037.939000",
    "164039.939000",
    "164041.940000",
    "164043.940000",
    "164045.940000",
    "164047.941000",
    "164049.939000",
    "164051.939000",
    "164053.939000",
    "164055.940000",
    "164057.940000",
    "164059.939000",
    "164101.940000",
    "164103.940000",
    "164105.940000",
    "164107.940000",
    "164109.940000",
    "164111.939000",
    "164113.940000",
    "164115.939000",
    "164117.940000",
    "164119.940000",
    "164121.941000",
    "164123.941000",
    "164125.939000",
    "164127.940000",
    "164129.939000",
    "164131.939000",
    "164133.940000",
    "164135.940000",
    "164137.940000",
    "164139.941000",
    "164141.940000",
    "164143.939000",
    "164145.939000",
    "164147.939000",
    "164149.939000",
    "164151.939000",
    "164153.939000",
    "164155.941000",
    "164157.941000",
    "164159.940000",
    "164201.939000",
    "164203.939000",
    "164205.939000",
    "164207.939000",
    "164209.940000",
    "164211.941000",
    "164213.940000",
    "164215.940000",
    "164217.939000",
    "164219.939000",
    "164221.939000",
    "164223.940000",
    "164225.940000",
    "164227.939000",
    "164229.940000",
    "164231.941000",
    "164233.940000",
    "164235.939000",
    "164237.939000",
    "164239.939000",
    "164241.939000",
    "164243.940000",
    "164245.940000",
    "164247.941000",
    "164249.940000",
    "164251.940000",
    "164253.940000",
    "164255.940000",
    "164257.939000",
    "164259.939000",
    "164301.939000",
    "164303.941000",
    "164305.941000",
    "164307.941000",
    "164309.940000",
    "164311.939000",
    "164313.940000",
    "164315.939000",
    "164317.940000",
    "164319.940000",
    "164321.940000",
    "164323.941000",
    "164325.940000",
    "164327.939000",
    "164329.940000",
    "164331.940000",
    "164333.940000",
    "164335.939000",
    "164337.940000",
    "164339.941000",
    "164341.941000",
    "164343.941000",
    "164345.940000",
    "164347.939000",
    "164349.940000",
    "164351.939000",
    "164353.939000",
    "164355.939000",
    "164357.940000",
    "164359.941000",
    "164401.941000",
    "164403.939000",
    "164405.939000",
    "164407.940000",
    "164409.940000",
    "164411.939000",
    "164413.940000",
    "164415.941000",
    "164417.941000",
    "164419.939000",
    "164421.939000",
    "164423.939000",
    "164425.940000",
    "164427.940000",
    "164429.939000",
    "164431.941000",
    "164433.940000",
    "164435.941000",
    "164437.939000",
    "164439.939000",
    "164441.940000",
    "164443.940000",
    "164445.939000",
    "164447.939000",
    "164449.940000",
    "164451.941000",
    "164453.940000",
    "164455.939000",
    "164457.940000",
    "164459.940000",
    "164501.940000",
    "164503.940000",
    "164505.939000",
    "164507.941000",
    "164509.941000",
    "164511.940000",
    "164513.940000",
    "164515.940000",
    "164517.940000",
    "164519.939000",
    "164521.940000",
    "164523.941000",
    "164525.940000",
    "164527.941000",
    "164529.940000",
    "164531.939000",
    "164533.939000",
    "164535.939000",
    "164537.940000",
    "164539.940000",
    "164541.941000",
    "164543.941000",
    "164545.940000",
    "164547.940000",
    "164549.940000",
    "164551.940000",
    "164553.939000",
    "164555.942000",
    "164557.939000",
    "164559.940000",
    "164601.941000",
    "164603.943000",
    "164605.939000",
    "164607.940000",
    "164609.940000",
    "164611.940000",
    "164613.940000",
    "164615.940000",
    "164617.941000",
    "164619.941000",
    "164621.941000",
    "164623.953000",
    "164625.940000",
    "164627.939000",
    "164629.940000",
    "164631.940000",
    "164633.940000",
    "164635.941000",
    "164637.941000",
    "164639.940000",
    "164641.940000",
    "164643.940000",
    "164645.939000",
    "164647.939000",
    "164649.939000",
    "164651.941000",
    "164653.941000",
    "164655.941000",
    "164657.940000",
    "164659.939000",
    "164701.942000",
    "164703.939000",
    "164705.940000",
    "164707.940000",
    "164709.940000",
    "164711.941000",
    "164713.940000",
    "164715.940000",
    "164717.940000",
    "164719.940000",
    "164721.940000",
    "164723.939000",
    "164725.940000",
    "164727.940000",
    "164729.941000",
    "164731.941000",
    "164733.940000",
    "164735.940000",
    "164737.940000",
    "164739.940000",
    "164741.939000",
    "164743.940000",
    "164745.940000",
    "164747.940000",
    "164749.939000",
    "164751.940000",
    "164753.940000",
    "164755.940000",
    "164757.940000",
    "164759.939000",
    "164801.940000",
    "164803.940000",
    "164805.941000",
    "164807.940000",
    "164809.940000",
    "164811.939000",
    "164813.939000",
    "164815.940000",
    "164817.939000",
    "164819.941000",
    "164821.940000",
    "164823.941000",
    "164825.940000",
    "164827.940000",
    "164829.939000",
    "164831.940000",
    "164833.940000",
    "164835.940000",
    "164837.941000",
    "164839.721000"
   ],
   "InstanceNumber": [
    1,
    2,
    3,
    4,
    5,
    6,
    7,
    8,
    9,
    10,
    11,
    12,
    13,
    14,
    15,
    16,
    17,
    18,
    19,
    20,
    21,
    22,
    23,
    24,
    25,
    26,
    27,
    28,
    29,
    30,
    31,
    32,
    33,
    34,
    35,
    36,
    37,
    38,
    39,
    40,
    41,
    42,
    43,
    44,
    45,
    46,
    47,
    48,
    49,
    50,
    51,
    52,
    53,
    54,
    55,
    56,
    57,
    58,
    59,
    60,
    61,
    62,
    63,
    64,
    65,
    66,
    67,
    68,
    69,
    70,
    71,
    72,
    73,
    74,
    75,
    76,
    77,
    78,
    79,
    80,
    81,
    82,
    83,
    84,
    85,
    86,
    87,
    88,
    89,
    90,
    91,
    92,
    93,
    94,
    95,
    96,
    97,
    98,
    99,
    100,
    101,
    102,
    103,
    104,
    105,
    106,
    107,
    108,
    109,
    110,
    111,
    112,
    113,
    114,
    115,
    116,
    117,
    118,
    119,
    120,
    121,
    122,
    123,
    124,
    125,
    126,
    127,
    128,
    129,
    130,
    131,
    132,
    133,
    134,
    135,
    136,
    137,
    138,
    139,
    140,
    141,
    142,
    143,
    144,
    145,
    146,
    147,
    148,
    149,
    150,
    151,
    152,
    153,
    154,
    155,
    156,
    157,
    158,
    159,
    160,
    161,
    162,
    163,
    164,
    165,
    166,
    167,
    168,
    169,
    170,
    171,
    172,
    173,
    174,
    175,
    176,
    177,
    178,
    179,
    180,
    181,
    182,
    183,
    184,
    185,
    186,
    187,
    188,
    189,
    190,
    191,
    192,
    193,
    194,
    195,
    196,
    197,
    198,
    199,
    200,
    201,
    202,
    203,
    204,
    205,
    206,
    207,
    208,
    209,
    210,
    211,
    212,
    213,
    214,
    215,
    216,
    217,
    218,
    219,
    220,
    221,
    222,
    223,
    224,
    225,
    226,
    227,
    228,
    229,
    230,
    231,
    232,
    233,
    234,
    235,
    236,
    237,
    238,
    239,
    240,
    241,
    242,
    243,
    244,
    245,
    246,
    247,
    248,
    249,
    250,
    251,
    252,
    253,
    254,
    255,
    256
   ],
   "LargestImagePixelValue": [
    2933,
    2673,
    2710,
    2725,
    2790,
    2798,
    2708,
    2732,
    2762,
    2615,
    2763,
    2686,
    2750,
    2637,
    2684,
    2887,
    2866,
    2926,
    2704,
    2924,
    2714,
    2634,
    2646,
    2686,
    2724,
    2661,
    2687,
    2686,
    2756,
    2728,
    2807,
    2737,
    2661,
    2728,
    2651,
    2697,
    2998,
    2669,
    2706,
    2740,
    2721,
    2820,
    2670,
    2696,
    2623,
    2717,
    2729,
    2733,
    2680,
    2669,
    2766,
    2728,
    2714,
    2639,
    2716,
    2698,
    2788,
    2689,
    2688,
    2835,
    2746,
    2811,
    2640,
    2692,
    2665,
    2712,
    2720,
    2774,
    2745,
    2669,
    2782,
    2771,
    2817,
    2832,
    2754,
    2658,
    2692,
    2725,
    2823,
    2673,
    2701,
    2602,
    2688,
    2789,
    2736,
    2789,
    2630,
    2729,
    2743,
    2742,
    2747,
    2755,
    2781,
    2686,
    2685,
    2777,
    2788,
    2785,
    2662,
    2814,
    2730,
    2700,
    2721,
    2724,
    2752,
    2682,
    2701,
    2806,
    2893,
    2748,
    2801,
    2725,
    2658,
    2681,
    2663,
    2731,
    2710,
    2626,
    2756,
    2712,
    2764,
    2692,
    2737,
    2685,
    2711,
    2649,
    2711,
    2721,
    2740,
    2633,
    2675,
    2779,
    2767,
    2752,
    2710,
    2761,
    2688,
    2710,
    2614,
    2726,
    2635,
    2722,
    2768,
    2769,
    2718,
    2726,
    2707,
    2775,
    2745,
    2740,
    2785,
    2718,
    2638,
    2616,
    2728,
    2742,
    2780,
    2603,
    2704,
    2664,
    2644,
    2627,
    2705,
    2706,
    2745,
    2721,
    2806,
    2728,
    2747,
    2688,
    2757,
    2651,
    2683,
    2804,
    2601,
    2744,
    2624,
    2619,
    2769,
    2771,
    2756,
    2699,
    2825,
    2687,
    2721,
    2820,
    2858,
    2996,
    2779,
    2673,
    2823,
    2759,
    2676,
    2612,
    2576,
    2678,
    2621,
    2952,
    2653,
    2646,
    2758,
    2759,
    2784,
    2749,
    2639,
    2777,
    2786,
    2718,
    2719,
    2674,
    2666,
    2708,
    2810,
    2803,
    2731,
    2853,
    2894,
    2607,
    2741,
    2734,
    2769,
    2718,
    2825,
    2926,
    2710,
    2690,
    2795,
    2682,
    2775,
    2725,
    2731,
    2728,
    2717,
    2763,
    2663,
    2738,
    2726,
    2644,
    2730,
    2766,
    2738,
    2758,
    2716,
    2677,
    2629,
    2754,
    2700,
    2717,
    2663,
    2711,
    2748,
    2742,
    2574,
    2678,
    2791,
    2770
   ],
   "WindowCenter": [
    756.0,
    753.0,
    755.0,
    754.0,
    755.0,
    755.0,
    754.0,
    755.0,
    755.0,
    755.0,
    757.0,
    755.0,
    755.0,
    754.0,
    756.0,
    758.0,
    757.0,
    757.0,
    755.0,
    757.0,
    755.0,
    754.0,
    756.0,
    756.0,
    755.0,
    755.0,
    757.0,
    757.0,
    757.0,
    755.0,
    756.0,
    755.0,
    755.0,
    756.0,
    755.0,
    754.0,
    758.0,
    754.0,
    756.0,
    756.0,
    755.0,
    756.0,
    753.0,
    753.0,
    754.0,
    755.0,
    755.0,
    755.0,
    754.0,
    754.0,
    756.0,
    755.0,
    754.0,
    752.0,
    754.0,
    754.0,
    755.0,
    754.0,
    754.0,
    756.0,
    754.0,
    754.0,
    752.0,
    753.0,
    752.0,
    753.0,
    753.0,
    753.0,
    753.0,
    753.0,
    755.0,
    756.0,
    756.0,
    755.0,
    754.0,
    752.0,
    754.0,
    753.0,
    754.0,
    752.0,
    752.0,
    751.0,
    754.0,
    755.0,
    753.0,
    753.0,
    753.0,
    755.0,
    755.0,
    754.0,
    754.0,
    754.0,
    754.0,
    753.0,
    754.0,
    756.0,
    755.0,
    754.0,
    755.0,
    756.0,
    755.0,
    753.0,
    755.0,
    755.0,
    755.0,
    753.0,
    756.0,
    757.0,
    757.0,
    754.0,
    756.0,
    754.0,
    754.0,
    755.0,
    753.0,
    753.0,
    752.0,
    751.0,
    754.0,
    754.0,
    753.0,
    752.0,
    753.0,
    751.0,
    753.0,
