{
 "AcquisitionMatrixPE": 100,
 "AcquisitionNumber": 1,
 "AcquisitionTime": "16:47:5.020000",
 "BandwidthPerPixelPhaseEncode": 18.519,
 "BaseResolution": 100,
 "BodyPartExamined": "BRAIN",
 "ConsistencyInfo": "N4_VE11C_LATEST_20160120",
 "ConversionSoftware": "dcm2niix",
 "ConversionSoftwareVersion": "v1.0.20180622 GCC4.9.2",
 "DerivedVendorReportedEchoSpacing": 0.000539986,
 "DeviceSerialNumber": "166078",
 "DwellTime": 2.1e-06,
 "EchoTime": 0.034,
 "EchoTrainLength": 100,
 "EffectiveEchoSpacing": 0.000539986,
 "FlipAngle": 90,
 "ImageOrientationPatientDICOM": [
  1,
  0,
  0,
  0,
  0.997801,
  -0.0662739
 ],
 "ImageType": [
  "ORIGINAL",
  "PRIMARY",
  "M",
  "ND",
  "MOSAIC"
 ],
 "InPlanePhaseEncodingDirectionDICOM": "COL",
 "InstitutionAddress": "Street_StreetNo_Bei_Jing_District_CN_ZIP",
 "InstitutionName": "BeiJing_Normal_University",
 "InstitutionalDepartmentName": "Department",
 "MRAcquisitionType": "2D",
 "MagneticFieldStrength": 3,
 "Manufacturer": "Siemens",
 "ManufacturersModelName": "Prisma",
 "Modality": "MR",
 "MultibandAccelerationFactor": 3,
 "PartialFourier": 1,
 "PatientPosition": "HFS",
 "PercentPhaseFOV": 100,
 "PhaseEncodingDirection": "j-",
 "PhaseEncodingSteps": 100,
 "PhaseResolution": 1,
 "PixelBandwidth": 2380,
 "ProcedureStepDescription": "BNU_P2018_64CH_Zhen.ZongLei",
 "ProtocolName": "bold_100x100_s3_2x2x2_static_256",
 "PulseSequenceDetails": "%SiemensSeq%_ep2d_bold",
 "ReceiveCoilActiveElements": "HC1-7;NC1",
 "ReceiveCoilName": "HeadNeck_64",
 "ReconMatrixPE": 100,
 "RepetitionTime": 2,
 "SAR": 0.0732873,
 "ScanOptions": "FS",
 "ScanningSequence": "EP",
 "SequenceName": "_epfid2d1_100",
 "SequenceVariant": "SK",
 "SeriesDescription": "bold_100x100_s3_2x2x2_static_256",
 "SeriesNumber": 16,
 "ShimSetting": [
  -5470,
  -11503,
  -1261,
  194,
  -47,
  -248,
  -201,
  60
 ],
 "SliceThickness": 2,
 "SliceTiming": [
  1.485,
  0,
  0.99,
  0.0825,
  1.0725,
  0.165,
  1.155,
  0.2475,
  1.2375,
  0.33,
  1.32,
  0.4125,
  1.4025,
  0.5775,
  1.5675,
  0.66,
  1.65,
  0.7425,
  1.7325,
  0.825,
  1.815,
  0.9075,
  1.8975,
  0.495,
  1.485,
  0,
  0.99,
  0.0825,
  1.0725,
  0.165,
  1.155,
  0.2475,
  1.2375,
  0.33,
  1.32,
  0.4125,
  1.4025,
  0.5775,
  1.5675,
  0.66,
  1.65,
  0.7425,
  1.7325,
  0.825,
  1.815,
  0.9075,
  1.8975,
  0.495,
  1.485,
  0,
  0.99,
  0.0825,
  1.0725,
  0.165,
  1.155,
  0.2475,
  1.2375,
  0.33,
  1.32,
  0.4125,
  1.4025,
  0.5775,
  1.5675,
  0.66,
  1.65,
  0.7425,
  1.7325,
  0.825,
  1.815,
  0.9075,
  1.8975,
  0.495
 ],
 "SoftwareVersions": "syngo_MR_E11",
 "SpacingBetweenSlices": 2,
 "StationName": "AWP166078",
 "TaskName": "imagenet",
 "TotalReadoutTime": 0.0534586,
 "TxRefAmp": 219.2,
 "dcmmeta_affine": [
  [
   -2.0,
   0.0,
   0.0,
   100.05597686767578
  ],
  [
   0.0,
   1.9956029653549194,
   -0.13254781067371368,
   -88.70864868164062
  ],
  [
   0.0,
   0.13254781067371368,
   1.9956029653549194,
   -71.36284637451172
  ],
  [
   0.0,
   0.0,
   0.0,
   1.0
  ]
 ],
 "dcmmeta_reorient_transform": [
  [
   0.0,
   -1.0,
   0.0,
   99.0
  ],
  [
   1.0,
   0.0,
   0.0,
   0.0
  ],
  [
   0.0,
   0.0,
   1.0,
   0.0
  ],
  [
   0.0,
   0.0,
   0.0,
   1.0
  ]
 ],
 "dcmmeta_shape": [
  100,
  100,
  72,
  256
 ],
 "dcmmeta_slice_dim": 2,
 "dcmmeta_version": 0.6,
 "global": {
  "const": {
   "AcquisitionMatrix": [
    100,
    0,
    0,
    100
   ],
   "AngioFlag": "N",
   "BitsAllocated": 16,
   "BitsStored": 12,
   "BodyPartExamined": "BRAIN",
   "Columns": 900,
   "EchoNumbers": 1,
   "EchoTime": 34.0,
   "EchoTrainLength": 100,
   "FlipAngle": 90.0,
   "HighBit": 11,
   "ImageOrientationPatient": [
    1.0,
    0.0,
    0.0,
    0.0,
    0.99780146819131,
    -0.0662739019167
   ],
   "ImagePositionPatient": [
    -900.05598034337,
    -907.0972176353,
    -5.2214921201749
   ],
   "ImageType": [
    "ORIGINAL",
    "PRIMARY",
    "M",
    "ND",
    "MOSAIC"
   ],
   "ImagedNucleus": "1H",
   "ImagingFrequency": 123.257772,
   "InPlanePhaseEncodingDirection": "COL",
   "MRAcquisitionType": "2D",
   "MagneticFieldStrength": 3.0,
   "Manufacturer": "SIEMENS",
   "ManufacturerModelName": "Prisma",
   "Modality": "MR",
   "NumberOfAverages": 1.0,
   "NumberOfPhaseEncodingSteps": 100,
   "PercentPhaseFieldOfView": 100.0,
   "PercentSampling": 100.0,
   "PerformedProcedureStepStartTime": "150127.919000",
   "PhotometricInterpretation": "MONOCHROME2",
   "PixelBandwidth": 2380.0,
   "PixelRepresentation": 0,
   "PixelSpacing": [
    2.0,
    2.0
   ],
   "ProtocolName": "bold_100x100_s3_2x2x2_static_256",
   "RepetitionTime": 2000.0,
   "Rows": 900,
   "SAR": 0.07328729951489,
   "SamplesPerPixel": 1,
   "ScanOptions": "FS",
   "ScanningSequence": "EP",
   "SequenceName": "*epfid2d1_100",
   "SequenceVariant": "SK",
   "SeriesDescription": "bold_100x100_s3_2x2x2_static_256",
   "SeriesNumber": 16,
   "SeriesTime": "164707.091000",
   "SliceLocation": -65.326884534143,
   "SliceThickness": 2.0,
   "SmallestImagePixelValue": 0,
   "SoftwareVersions": "syngo MR E11",
   "SpacingBetweenSlices": 2.0000000606226,
   "SpecificCharacterSet": "ISO_IR 100",
   "StudyID": "1",
   "StudyTime": "150127.834000",
   "TransmitCoilName": "Body",
   "VariableFlipAngleFlag": "N",
   "WindowCenterWidthExplanation": "Algo1",
   "dBdt": 0.0
  },
  "slices": {}
 },
 "time": {
  "samples": {
   "AcquisitionNumber": [
    1,
    2,
    3,
    4,
    5,
    6,
    7,
    8,
    9,
    10,
    11,
    12,
    13,
    14,
    15,
    16,
    17,
    18,
    19,
    20,
    21,
    22,
    23,
    24,
    25,
    26,
    27,
    28,
    29,
    30,
    31,
    32,
    33,
    34,
    35,
    36,
    37,
    38,
    39,
    40,
    41,
    42,
    43,
    44,
    45,
    46,
    47,
    48,
    49,
    50,
    51,
    52,
    53,
    54,
    55,
    56,
    57,
    58,
    59,
    60,
    61,
    62,
    63,
    64,
    65,
    66,
    67,
    68,
    69,
    70,
    71,
    72,
    73,
    74,
    75,
    76,
    77,
    78,
    79,
    80,
    81,
    82,
    83,
    84,
    85,
    86,
    87,
    88,
    89,
    90,
    91,
    92,
    93,
    94,
    95,
    96,
    97,
    98,
    99,
    100,
    101,
    102,
    103,
    104,
    105,
    106,
    107,
    108,
    109,
    110,
    111,
    112,
    113,
    114,
    115,
    116,
    117,
    118,
    119,
    120,
    121,
    122,
    123,
    124,
    125,
    126,
    127,
    128,
    129,
    130,
    131,
    132,
    133,
    134,
    135,
    136,
    137,
    138,
    139,
    140,
    141,
    142,
    143,
    144,
    145,
    146,
    147,
    148,
    149,
    150,
    151,
    152,
    153,
    154,
    155,
    156,
    157,
    158,
    159,
    160,
    161,
    162,
    163,
    164,
    165,
    166,
    167,
    168,
    169,
    170,
    171,
    172,
    173,
    174,
    175,
    176,
    177,
    178,
    179,
    180,
    181,
    182,
    183,
    184,
    185,
    186,
    187,
    188,
    189,
    190,
    191,
    192,
    193,
    194,
    195,
    196,
    197,
    198,
    199,
    200,
    201,
    202,
    203,
    204,
    205,
    206,
    207,
    208,
    209,
    210,
    211,
    212,
    213,
    214,
    215,
    216,
    217,
    218,
    219,
    220,
    221,
    222,
    223,
    224,
    225,
    226,
    227,
    228,
    229,
    230,
    231,
    232,
    233,
    234,
    235,
    236,
    237,
    238,
    239,
    240,
    241,
    242,
    243,
    244,
    245,
    246,
    247,
    248,
    249,
    250,
    251,
    252,
    253,
    254,
    255,
    256
   ],
   "AcquisitionTime": [
    "164705.020000",
    "164707.020000",
    "164709.020000",
    "164711.020000",
    "164713.020000",
    "164715.020000",
    "164717.020000",
    "164719.020000",
    "164721.020000",
    "164723.020000",
    "164725.020000",
    "164727.020000",
    "164729.020000",
    "164731.020000",
    "164733.020000",
    "164735.020000",
    "164737.020000",
    "164739.020000",
    "164741.020000",
    "164743.020000",
    "164745.020000",
    "164747.020000",
    "164749.020000",
    "164751.020000",
    "164753.020000",
    "164755.020000",
    "164757.020000",
    "164759.020000",
    "164801.020000",
    "164803.020000",
    "164805.020000",
    "164807.020000",
    "164809.020000",
    "164811.020000",
    "164813.020000",
    "164815.020000",
    "164817.020000",
    "164819.020000",
    "164821.020000",
    "164823.020000",
    "164825.020000",
    "164827.020000",
    "164829.020000",
    "164831.020000",
    "164833.020000",
    "164835.020000",
    "164837.020000",
    "164839.020000",
    "164841.020000",
    "164843.020000",
    "164845.020000",
    "164847.020000",
    "164849.020000",
    "164851.020000",
    "164853.020000",
    "164855.020000",
    "164857.020000",
    "164859.020000",
    "164901.020000",
    "164903.020000",
    "164905.020000",
    "164907.020000",
    "164909.020000",
    "164911.020000",
    "164913.020000",
    "164915.020000",
    "164917.020000",
    "164919.020000",
    "164921.020000",
    "164923.020000",
    "164925.020000",
    "164927.020000",
    "164929.020000",
    "164931.020000",
    "164933.020000",
    "164935.020000",
    "164937.020000",
    "164939.020000",
    "164941.020000",
    "164943.020000",
    "164945.020000",
    "164947.020000",
    "164949.020000",
    "164951.020000",
    "164953.020000",
    "164955.020000",
    "164957.020000",
    "164959.020000",
    "165001.020000",
    "165003.020000",
    "165005.020000",
    "165007.020000",
    "165009.020000",
    "165011.020000",
    "165013.020000",
    "165015.020000",
    "165017.020000",
    "165019.020000",
    "165021.020000",
    "165023.020000",
    "165025.020000",
    "165027.020000",
    "165029.020000",
    "165031.020000",
    "165033.020000",
    "165035.020000",
    "165037.020000",
    "165039.020000",
    "165041.020000",
    "165043.020000",
    "165045.020000",
    "165047.020000",
    "165049.020000",
    "165051.020000",
    "165053.020000",
    "165055.020000",
    "165057.020000",
    "165059.020000",
    "165101.020000",
    "165103.020000",
    "165105.020000",
    "165107.020000",
    "165109.020000",
    "165111.020000",
    "165113.020000",
    "165115.020000",
    "165117.020000",
    "165119.020000",
    "165121.020000",
    "165123.020000",
    "165125.020000",
    "165127.020000",
    "165129.020000",
    "165131.020000",
    "165133.020000",
    "165135.020000",
    "165137.020000",
    "165139.020000",
    "165141.020000",
    "165143.020000",
    "165145.020000",
    "165147.020000",
    "165149.020000",
    "165151.020000",
    "165153.020000",
    "165155.020000",
    "165157.020000",
    "165159.020000",
    "165201.020000",
    "165203.020000",
    "165205.020000",
    "165207.020000",
    "165209.020000",
    "165211.020000",
    "165213.020000",
    "165215.020000",
    "165217.020000",
    "165219.020000",
    "165221.020000",
    "165223.020000",
    "165225.020000",
    "165227.020000",
    "165229.020000",
    "165231.020000",
    "165233.020000",
    "165235.020000",
    "165237.020000",
    "165239.020000",
    "165241.020000",
    "165243.020000",
    "165245.020000",
    "165247.020000",
    "165249.020000",
    "165251.020000",
    "165253.020000",
    "165255.020000",
    "165257.020000",
    "165259.020000",
    "165301.020000",
    "165303.020000",
    "165305.020000",
    "165307.020000",
    "165309.020000",
    "165311.020000",
    "165313.020000",
    "165315.020000",
    "165317.020000",
    "165319.020000",
    "165321.020000",
    "165323.020000",
    "165325.020000",
    "165327.020000",
    "165329.020000",
    "165331.020000",
    "165333.020000",
    "165335.020000",
    "165337.020000",
    "165339.020000",
    "165341.020000",
    "165343.020000",
    "165345.020000",
    "165347.020000",
    "165349.020000",
    "165351.020000",
    "165353.020000",
    "165355.020000",
    "165357.020000",
    "165359.020000",
    "165401.020000",
    "165403.020000",
    "165405.020000",
    "165407.020000",
    "165409.020000",
    "165411.020000",
    "165413.020000",
    "165415.020000",
    "165417.020000",
    "165419.020000",
    "165421.020000",
    "165423.020000",
    "165425.020000",
    "165427.020000",
    "165429.020000",
    "165431.020000",
    "165433.020000",
    "165435.020000",
    "165437.020000",
    "165439.020000",
    "165441.020000",
    "165443.020000",
    "165445.020000",
    "165447.020000",
    "165449.020000",
    "165451.020000",
    "165453.020000",
    "165455.020000",
    "165457.020000",
    "165459.020000",
    "165501.020000",
    "165503.020000",
    "165505.020000",
    "165507.020000",
    "165509.020000",
    "165511.020000",
    "165513.020000",
    "165515.020000",
    "165517.020000",
    "165519.020000",
    "165521.020000",
    "165523.020000",
    "165525.020000",
    "165527.020000",
    "165529.020000",
    "165531.020000",
    "165533.020000",
    "165535.020000"
   ],
   "ContentTime": [
    "164707.095000",
    "164709.091000",
    "164711.091000",
    "164712.591000",
    "164715.090000",
    "164717.091000",
    "164719.091000",
    "164721.091000",
    "164723.091000",
    "164725.089000",
    "164727.090000",
    "164729.091000",
    "164731.090000",
    "164733.090000",
    "164735.091000",
    "164736.590000",
    "164739.091000",
    "164740.591000",
    "164743.090000",
    "164745.090000",
    "164747.091000",
    "164749.091000",
    "164751.091000",
    "164753.090000",
    "164755.090000",
    "164757.090000",
    "164758.591000",
    "164800.590000",
    "164803.090000",
    "164805.091000",
    "164807.090000",
    "164808.591000",
    "164811.090000",
    "164812.591000",
    "164815.091000",
    "164817.091000",
    "164819.091000",
    "164820.591000",
    "164823.091000",
    "164824.591000",
    "164826.590000",
    "164829.090000",
    "164831.090000",
    "164833.091000",
    "164835.090000",
    "164837.090000",
    "164838.591000",
    "164841.091000",
    "164843.090000",
    "164845.090000",
    "164846.591000",
    "164849.090000",
    "164850.591000",
    "164852.590000",
    "164855.090000",
    "164857.090000",
    "164859.091000",
    "164900.590000",
    "164903.090000",
    "164904.591000",
    "164906.591000",
    "164908.591000",
    "164911.090000",
    "164912.590000",
    "164914.591000",
    "164917.091000",
    "164919.091000",
    "164921.090000",
    "164922.591000",
    "164924.590000",
    "164926.590000",
    "164929.091000",
    "164930.591000",
    "164933.091000",
    "164934.591000",
    "164937.090000",
    "164938.590000",
    "164940.590000",
    "164943.090000",
    "164944.591000",
    "164947.090000",
    "164949.091000",
    "164950.591000",
    "164953.091000",
    "164955.090000",
    "164956.591000",
    "164959.091000",
    "165001.090000",
    "165003.089000",
    "165005.090000",
    "165007.091000",
    "165009.091000",
    "165010.591000",
    "165012.591000",
    "165015.091000",
    "165017.091000",
    "165018.590000",
    "165021.090000",
    "165023.091000",
    "165024.591000",
    "165026.591000",
    "165028.591000",
    "165031.091000",
    "165033.091000",
    "165035.090000",
    "165037.091000",
    "165039.090000",
    "165041.091000",
    "165043.091000",
    "165045.090000",
    "165047.091000",
    "165048.590000",
    "165050.591000",
    "165053.090000",
    "165055.089000",
    "165057.091000",
    "165059.090000",
    "165101.090000",
    "165103.090000",
    "165105.090000",
    "165107.090000",
    "165108.591000",
    "165111.091000",
    "165113.090000",
    "165114.591000",
    "165117.090000",
    "165119.091000",
    "165121.091000",
    "165123.090000",
    "165125.091000",
    "165127.091000",
    "165128.591000",
    "165131.101000",
    "165132.591000",
    "165135.091000",
    "165136.591000",
    "165139.090000",
    "165141.090000",
    "165142.590000",
    "165145.091000",
    "165147.091000",
    "165149.091000",
    "165151.091000",
    "165153.091000",
    "165155.090000",
    "165157.091000",
    "165158.591000",
    "165200.591000",
    "165203.090000",
    "165205.090000",
    "165206.591000",
    "165208.591000",
    "165210.591000",
    "165213.091000",
    "165214.591000",
    "165217.091000",
    "165219.091000",
    "165221.091000",
    "165223.089000",
    "165225.091000",
    "165226.590000",
    "165228.590000",
    "165230.591000",
    "165232.591000",
    "165235.091000",
    "165237.091000",
    "165238.590000",
    "165241.091000",
    "165243.091000",
    "165245.090000",
    "165247.091000",
    "165248.591000",
    "165250.591000",
    "165253.091000",
    "165254.591000",
    "165257.090000",
    "165258.591000",
    "165301.091000",
    "165303.091000",
    "165304.591000",
    "165306.591000",
    "165308.591000",
    "165310.590000",
    "165313.090000",
    "165315.090000",
    "165317.091000",
    "165319.090000",
    "165321.091000",
    "165323.090000",
    "165324.591000",
    "165327.090000",
    "165329.090000",
    "165331.091000",
    "165333.090000",
    "165335.090000",
    "165336.591000",
    "165339.091000",
    "165341.091000",
    "165343.091000",
    "165345.090000",
    "165347.090000",
    "165349.091000",
    "165351.091000",
    "165352.591000",
    "165355.091000",
    "165357.091000",
    "165359.091000",
    "165400.591000",
    "165403.090000",
    "165405.090000",
    "165407.091000",
    "165409.091000",
    "165411.091000",
    "165413.090000",
    "165415.091000",
    "165417.090000",
    "165419.091000",
    "165421.090000",
    "165423.091000",
    "165425.089000",
    "165427.091000",
    "165429.090000",
    "165431.091000",
    "165432.591000",
    "165435.090000",
    "165436.591000",
    "165438.591000",
    "165441.091000",
    "165443.090000",
    "165445.091000",
    "165446.591000",
    "165449.090000",
    "165451.091000",
    "165453.091000",
    "165455.091000",
    "165457.091000",
    "165459.091000",
    "165500.590000",
    "165503.091000",
    "165505.091000",
    "165507.090000",
    "165509.091000",
    "165510.590000",
    "165513.091000",
    "165515.091000",
    "165517.091000",
    "165518.590000",
    "165520.591000",
    "165522.591000",
    "165525.091000",
    "165527.090000",
    "165528.591000",
    "165530.591000",
    "165533.090000",
    "165535.090000",
    "165536.594000"
   ],
   "InstanceCreationTime": [
    "164707.095000",
    "164709.091000",
    "164711.091000",
    "164712.591000",
    "164715.090000",
    "164717.091000",
    "164719.091000",
    "164721.091000",
    "164723.091000",
    "164725.089000",
    "164727.090000",
    "164729.091000",
    "164731.090000",
    "164733.090000",
    "164735.091000",
    "164736.590000",
    "164739.091000",
    "164740.591000",
    "164743.090000",
    "164745.090000",
    "164747.091000",
    "164749.091000",
    "164751.091000",
    "164753.090000",
    "164755.090000",
    "164757.090000",
    "164758.591000",
    "164800.590000",
    "164803.090000",
    "164805.091000",
    "164807.090000",
    "164808.591000",
    "164811.090000",
    "164812.591000",
    "164815.091000",
    "164817.091000",
    "164819.091000",
    "164820.591000",
    "164823.091000",
    "164824.591000",
    "164826.590000",
    "164829.090000",
    "164831.090000",
    "164833.091000",
    "164835.090000",
    "164837.090000",
    "164838.591000",
    "164841.091000",
    "164843.090000",
    "164845.090000",
    "164846.591000",
    "164849.090000",
    "164850.591000",
    "164852.590000",
    "164855.090000",
    "164857.090000",
    "164859.091000",
    "164900.590000",
    "164903.090000",
    "164904.591000",
    "164906.591000",
    "164908.591000",
    "164911.090000",
    "164912.590000",
    "164914.591000",
    "164917.091000",
    "164919.091000",
    "164921.090000",
    "164922.591000",
    "164924.590000",
    "164926.590000",
    "164929.091000",
    "164930.591000",
    "164933.091000",
    "164934.591000",
    "164937.090000",
    "164938.590000",
    "164940.590000",
    "164943.090000",
    "164944.591000",
    "164947.090000",
    "164949.091000",
    "164950.591000",
    "164953.091000",
    "164955.090000",
    "164956.591000",
    "164959.091000",
    "165001.090000",
    "165003.089000",
    "165005.090000",
    "165007.091000",
    "165009.091000",
    "165010.591000",
    "165012.591000",
    "165015.091000",
    "165017.091000",
    "165018.590000",
    "165021.090000",
    "165023.091000",
    "165024.591000",
    "165026.591000",
    "165028.591000",
    "165031.091000",
    "165033.091000",
    "165035.090000",
    "165037.091000",
    "165039.090000",
    "165041.091000",
    "165043.091000",
    "165045.090000",
    "165047.091000",
    "165048.590000",
    "165050.591000",
    "165053.090000",
    "165055.089000",
    "165057.091000",
    "165059.090000",
    "165101.090000",
    "165103.090000",
    "165105.090000",
    "165107.090000",
    "165108.591000",
    "165111.091000",
    "165113.090000",
    "165114.591000",
    "165117.090000",
    "165119.091000",
    "165121.091000",
    "165123.090000",
    "165125.091000",
    "165127.091000",
    "165128.591000",
    "165131.101000",
    "165132.591000",
    "165135.091000",
    "165136.591000",
    "165139.090000",
    "165141.090000",
    "165142.590000",
    "165145.091000",
    "165147.091000",
    "165149.091000",
    "165151.091000",
    "165153.091000",
    "165155.090000",
    "165157.091000",
    "165158.591000",
    "165200.591000",
    "165203.090000",
    "165205.090000",
    "165206.591000",
    "165208.591000",
    "165210.591000",
    "165213.091000",
    "165214.591000",
    "165217.091000",
    "165219.091000",
    "165221.091000",
    "165223.089000",
    "165225.091000",
    "165226.590000",
    "165228.590000",
    "165230.591000",
    "165232.591000",
    "165235.091000",
    "165237.091000",
    "165238.590000",
    "165241.091000",
    "165243.091000",
    "165245.090000",
    "165247.091000",
    "165248.591000",
    "165250.591000",
    "165253.091000",
    "165254.591000",
    "165257.090000",
    "165258.591000",
    "165301.091000",
    "165303.091000",
    "165304.591000",
    "165306.591000",
    "165308.591000",
    "165310.590000",
    "165313.090000",
    "165315.090000",
    "165317.091000",
    "165319.090000",
    "165321.091000",
    "165323.090000",
    "165324.591000",
    "165327.090000",
    "165329.090000",
    "165331.091000",
    "165333.090000",
    "165335.090000",
    "165336.591000",
    "165339.091000",
    "165341.091000",
    "165343.091000",
    "165345.090000",
    "165347.090000",
    "165349.091000",
    "165351.091000",
    "165352.591000",
    "165355.091000",
    "165357.091000",
    "165359.091000",
    "165400.591000",
    "165403.090000",
    "165405.090000",
    "165407.091000",
    "165409.091000",
    "165411.091000",
    "165413.090000",
    "165415.091000",
    "165417.090000",
    "165419.091000",
    "165421.090000",
    "165423.091000",
    "165425.089000",
    "165427.091000",
    "165429.090000",
    "165431.091000",
    "165432.591000",
    "165435.090000",
    "165436.591000",
    "165438.591000",
    "165441.091000",
    "165443.090000",
    "165445.091000",
    "165446.591000",
    "165449.090000",
    "165451.091000",
    "165453.091000",
    "165455.091000",
    "165457.091000",
    "165459.091000",
    "165500.590000",
    "165503.091000",
    "165505.091000",
    "165507.090000",
    "165509.091000",
    "165510.590000",
    "165513.091000",
    "165515.091000",
    "165517.091000",
    "165518.590000",
    "165520.591000",
    "165522.591000",
    "165525.091000",
    "165527.090000",
    "165528.591000",
    "165530.591000",
    "165533.090000",
    "165535.090000",
    "165536.594000"
   ],
   "InstanceNumber": [
    1,
    2,
    3,
    4,
    5,
    6,
    7,
    8,
    9,
    10,
    11,
    12,
    13,
    14,
    15,
    16,
    17,
    18,
    19,
    20,
    21,
    22,
    23,
    24,
    25,
    26,
    27,
    28,
    29,
    30,
    31,
    32,
    33,
    34,
    35,
    36,
    37,
    38,
    39,
    40,
    41,
    42,
    43,
    44,
    45,
    46,
    47,
    48,
    49,
    50,
    51,
    52,
    53,
    54,
    55,
    56,
    57,
    58,
    59,
    60,
    61,
    62,
    63,
    64,
    65,
    66,
    67,
    68,
    69,
    70,
    71,
    72,
    73,
    74,
    75,
    76,
    77,
    78,
    79,
    80,
    81,
    82,
    83,
    84,
    85,
    86,
    87,
    88,
    89,
    90,
    91,
    92,
    93,
    94,
    95,
    96,
    97,
    98,
    99,
    100,
    101,
    102,
    103,
    104,
    105,
    106,
    107,
    108,
    109,
    110,
    111,
    112,
    113,
    114,
    115,
    116,
    117,
    118,
    119,
    120,
    121,
    122,
    123,
    124,
    125,
    126,
    127,
    128,
    129,
    130,
    131,
    132,
    133,
    134,
    135,
    136,
    137,
    138,
    139,
    140,
    141,
    142,
    143,
    144,
    145,
    146,
    147,
    148,
    149,
    150,
    151,
    152,
    153,
    154,
    155,
    156,
    157,
    158,
    159,
    160,
    161,
    162,
    163,
    164,
    165,
    166,
    167,
    168,
    169,
    170,
    171,
    172,
    173,
    174,
    175,
    176,
    177,
    178,
    179,
    180,
    181,
    182,
    183,
    184,
    185,
    186,
    187,
    188,
    189,
    190,
    191,
    192,
    193,
    194,
    195,
    196,
    197,
    198,
    199,
    200,
    201,
    202,
    203,
    204,
    205,
    206,
    207,
    208,
    209,
    210,
    211,
    212,
    213,
    214,
    215,
    216,
    217,
    218,
    219,
    220,
    221,
    222,
    223,
    224,
    225,
    226,
    227,
    228,
    229,
    230,
    231,
    232,
    233,
    234,
    235,
    236,
    237,
    238,
    239,
    240,
    241,
    242,
    243,
    244,
    245,
    246,
    247,
    248,
    249,
    250,
    251,
    252,
    253,
    254,
    255,
    256
   ],
   "LargestImagePixelValue": [
    4095,
    4023,
    4061,
    4073,
    4033,
    4024,
    4031,
    4034,
    3984,
    3974,
    4032,
    3988,
    3996,
    4019,
    4028,
    3991,
    4017,
    4003,
    4010,
    4001,
    4001,
    4027,
    4000,
    4007,
    4011,
    4027,
    4006,
    3974,
    3999,
    4001,
    3992,
    4005,
    4002,
    4013,
    4021,
    4004,
    4000,
    4039,
    4016,
    4028,
    3999,
    3977,
    4025,
    4011,
    4026,
    4027,
    4026,
    4020,
    4043,
    4031,
    4015,
    4027,
    4037,
    4014,
    4047,
    4019,
    4004,
    4053,
    4056,
    4059,
    4050,
    4058,
    4057,
    4043,
    4058,
    4062,
    4084,
    4095,
    4095,
    4095,
    4084,
    4095,
    4095,
    4095,
    4095,
    4089,
    4053,
    4051,
    4069,
    4065,
    4088,
    4084,
    4092,
    4080,
    4091,
    4095,
    4085,
    4087,
    4086,
    4084,
    4095,
    4069,
    4095,
    4095,
    4095,
    4095,
    4095,
    4075,
    4095,
    4095,
    4095,
    4087,
    4095,
    4094,
    4095,
    4095,
    4095,
    4095,
    4095,
    4095,
    4095,
    4095,
    4095,
    4082,
    4095,
    4095,
    4095,
    4095,
    4095,
    4090,
    4094,
    4088,
    4095,
    4095,
    4095,
    4095,
    4095,
    4095,
    4095,
    4095,
    4093,
    4095,
    4082,
    4095,
    4095,
    4095,
    4095,
    4095,
    4095,
    4087,
    4095,
    4091,
    4091,
    4095,
    4095,
    4095,
    4095,
    4095,
    4095,
    4086,
    4095,
    4095,
    4095,
    4095,
    4095,
    4095,
    4095,
    4095,
    4095,
    4095,
    4095,
    4095,
    4095,
    4095,
    4095,
    4095,
    4095,
    4095,
    4090,
    4095,
    4095,
    4095,
    4095,
    4095,
    4095,
    4095,
    4095,
    4095,
    4095,
    4095,
    4095,
    4095,
    4095,
    4095,
    4095,
    4095,
    4088,
    4095,
    4095,
    4095,
    4095,
    4095,
    4095,
    4095,
    4095,
    4095,
    4095,
    4095,
    4095,
    4095,
    4095,
    4095,
    4095,
    4095,
    4095,
    4095,
    4095,
    4095,
    4095,
    4095,
    4095,
    4095,
    4095,
    4095,
    4095,
    4095,
    4095,
    4095,
    4095,
    4095,
    4095,
    4095,
    4095,
    4095,
    4095,
    4095,
    4095,
    4095,
    4095,
    4095,
    4095,
    4095,
    4095,
    4095,
    4095,
    4095,
    4095,
    4095,
    4095,
    4095,
    4095,
    4095,
    4095,
    4095,
    4095,
    4095,
    4095,
    4095,
    4095,
    4095,
    4095,
    4095,
    4095,
    4095,
    4095,
    4095
   ],
   "WindowCenter": [
    833.0,
    830.0,
    830.0,
    831.0,
    831.0,
    830.0,
    830.0,
    829.0,
    827.0,
    826.0,
    827.0,
    827.0,
    828.0,
    828.0,
    828.0,
    829.0,
    830.0,
    829.0,
    831.0,
    831.0,
    830.0,
    830.0,
    829.0,
    829.0,
    829.0,
    829.0,
    830.0,
    831.0,
    832.0,
    830.0,
    831.0,
    831.0,
    831.0,
    830.0,
    829.0,
    830.0,
    829.0,
    830.0,
    830.0,
    830.0,
    830.0,
    830.0,
    830.0,
    829.0,
    830.0,
    830.0,
    831.0,
    832.0,
    832.0,
    831.0,
    831.0,
    831.0,
    832.0,
    832.0,
    831.0,
    830.0,
    830.0,
    831.0,
    832.0,
    834.0,
    833.0,
    834.0,
    833.0,
    832.0,
    832.0,
    832.0,
    831.0,
    830.0,
    828.0,
    829.0,
    829.0,
    829.0,
    829.0,
    828.0,
    829.0,
    830.0,
    830.0,
    829.0,
    829.0,
    830.0,
    830.0,
    830.0,
    830.0,
    830.0,
    829.0,
    830.0,
    831.0,
    831.0,
    830.0,
    829.0,
    829.0,
    829.0,
    830.0,
    829.0,
    829.0,
    828.0,
    829.0,
    831.0,
    833.0,
    831.0,
    830.0,
    829.0,
    829.0,
    829.0,
    830.0,
    829.0,
    829.0,
    829.0,
    829.0,
    830.0,
    830.0,
    830.0,
    831.0,
    831.0,
    831.0,
    829.0,
    829.0,
    829.0,
    831.0,
    831.0,
    830.0,
    830.0,
    831.0,
    831.0,
